Date,Open,High,Low,Close,Adj Close,Volume
2018-03-28,88.080002,88.900002,87.820000,88.360001,82.915169,194000
2018-03-29,88.879997,90.339996,88.360001,89.830002,84.294571,287300
2018-04-02,89.370003,89.739998,87.169998,87.930000,82.511665,184400
2018-04-03,88.430000,90.169998,87.690002,89.559998,84.041222,336600
2018-04-04,88.919998,89.949997,86.849998,89.709999,84.181976,276500
2018-04-05,90.300003,90.849998,89.279999,90.400002,84.829460,276400
2018-04-06,89.690002,90.360001,88.230003,88.500000,83.046516,362200
2018-04-09,89.150002,90.339996,88.599998,89.900002,84.360291,471500
2018-04-10,90.750000,93.099998,90.099998,92.720001,87.006516,455600
2018-04-11,91.970001,92.639999,91.750000,92.250000,86.565468,250800
2018-04-12,92.760002,93.250000,92.480003,92.699997,86.987732,221500
2018-04-13,93.199997,93.330002,92.459999,92.750000,87.034653,262600
2018-04-16,93.029999,94.660004,92.959999,94.309998,88.498505,196900
2018-04-17,94.279999,96.389999,93.790001,96.129997,90.206352,507200
2018-04-18,96.150002,96.199997,95.180000,95.610001,89.718422,346800
2018-04-19,95.050003,95.879997,94.540001,94.800003,88.958336,165000
2018-04-20,95.110001,95.139999,94.120003,94.440002,88.620506,217800
2018-04-23,94.709999,95.430000,94.099998,94.349998,88.536049,189500
2018-04-24,94.599998,94.699997,92.769997,93.180000,87.438141,401900
2018-04-25,93.019997,93.949997,92.370003,93.150002,87.409996,298700
2018-04-26,93.180000,93.699997,92.599998,93.279999,87.531982,417000
2018-04-27,93.750000,94.739998,91.879997,93.459999,87.700912,407500
2018-04-30,93.730003,93.989998,93.050003,93.500000,87.738426,907800
2018-05-01,93.449997,93.870003,92.730003,93.540001,87.775963,427800
2018-05-02,94.000000,94.000000,92.470001,92.559998,86.856369,631100
2018-05-03,92.250000,92.830002,90.980003,91.120003,85.505089,560200
2018-05-04,90.839996,92.769997,90.839996,92.260002,86.574837,339900
2018-05-07,92.370003,93.290001,92.300003,92.800003,87.081573,215100
2018-05-08,92.769997,92.790001,91.550003,91.760002,86.403618,284600
2018-05-09,92.000000,93.059998,91.370003,92.959999,87.533539,255500
2018-05-10,93.099998,93.940002,93.050003,93.790001,88.315086,377900
2018-05-11,93.750000,94.320000,93.150002,94.290001,88.785912,492900
2018-05-14,94.190002,94.709999,92.290001,93.370003,87.919617,477500
2018-05-15,93.169998,93.169998,91.589996,92.099998,86.723747,406400
2018-05-16,92.320000,93.769997,91.919998,93.540001,88.079689,257600
2018-05-17,93.669998,93.919998,93.050003,93.290001,87.844292,242600
2018-05-18,92.559998,94.279999,92.379997,93.559998,88.098526,272300
2018-05-21,94.019997,94.410004,93.839996,94.010002,88.522270,162300
2018-05-22,94.279999,94.949997,93.669998,93.959999,88.475166,165300
2018-05-23,93.629997,94.269997,93.360001,94.089996,88.597588,165800
2018-05-24,94.120003,94.480003,93.580002,94.029999,88.541069,116200
2018-05-25,93.879997,94.419998,93.849998,94.080002,88.588173,154900
2018-05-29,93.459999,94.010002,93.059998,93.309998,87.863121,212700
2018-05-30,92.699997,94.410004,92.699997,93.959999,88.475166,258600
2018-05-31,94.250000,94.389999,92.190002,92.320000,86.930908,151900
2018-06-01,92.879997,93.290001,92.470001,92.769997,87.354637,174800
2018-06-04,93.110001,93.900002,92.440002,93.860001,88.381012,172100
2018-06-05,94.059998,94.500000,93.559998,93.919998,88.437500,114800
2018-06-06,93.669998,94.099998,92.040001,93.910004,88.428108,437300
2018-06-07,93.830002,94.430000,92.440002,93.239998,87.797195,534000
2018-06-08,93.050003,93.900002,92.980003,93.660004,88.192688,290600
2018-06-11,93.790001,94.860001,93.430000,93.820000,88.343338,389400
2018-06-12,94.089996,94.889999,93.599998,94.150002,88.654083,455100
2018-06-13,94.550003,95.000000,94.050003,94.320000,88.814163,321400
2018-06-14,94.809998,95.260002,94.260002,94.860001,89.322655,320400
2018-06-15,95.000000,95.370003,94.389999,94.919998,89.379143,505200
2018-06-18,94.570000,95.080002,94.019997,94.839996,89.303795,347300
2018-06-19,93.949997,94.620003,93.610001,94.250000,88.748238,333700
2018-06-20,94.169998,94.870003,93.940002,94.639999,89.115486,285600
2018-06-21,94.510002,94.610001,92.949997,93.099998,87.665367,296900
2018-06-22,93.279999,93.489998,92.339996,92.629997,87.222809,681100
2018-06-25,92.769997,93.199997,91.419998,92.180000,86.799088,348700
2018-06-26,92.349998,93.449997,92.019997,92.709999,87.298141,266700
2018-06-27,92.779999,93.910004,92.070000,92.099998,86.723747,295800
2018-06-28,92.000000,92.760002,91.660004,92.709999,87.298141,251300
2018-06-29,93.199997,94.120003,92.930000,93.379997,87.929039,335800
2018-07-02,92.910004,93.769997,92.459999,93.589996,88.126762,237500
2018-07-03,93.959999,95.029999,93.610001,93.989998,88.503410,178000
2018-07-05,94.489998,94.540001,93.449997,94.540001,89.021324,249900
2018-07-06,94.220001,94.379997,93.720001,94.080002,88.588173,238000
2018-07-09,94.449997,95.629997,94.449997,95.099998,89.548630,188700
2018-07-10,95.169998,96.160004,95.169998,96.110001,90.499672,216100
2018-07-11,95.610001,96.370003,95.110001,95.680000,90.094772,220800
2018-07-12,96.000000,96.830002,95.589996,95.739998,90.151268,196700
2018-07-13,95.360001,96.190002,94.660004,94.870003,89.332062,205300
2018-07-16,94.769997,94.879997,93.169998,93.290001,87.844292,132000
2018-07-17,93.220001,94.739998,93.160004,94.639999,89.115486,155400
2018-07-18,94.639999,95.180000,94.180000,94.620003,89.096649,150000
2018-07-19,94.699997,96.540001,94.699997,96.330002,90.706825,213300
2018-07-20,95.940002,96.160004,95.330002,95.779999,90.188934,192600
2018-07-23,95.940002,96.330002,94.790001,95.139999,89.586288,195800
2018-07-24,95.339996,95.860001,94.529999,94.750000,89.219055,225300
2018-07-25,94.570000,95.000000,94.050003,94.730003,89.200226,182300
2018-07-26,94.879997,96.379997,94.559998,96.070000,90.461998,170300
2018-07-27,98.000000,103.029999,97.150002,102.900002,96.893311,626000
2018-07-30,103.519997,104.099998,99.940002,102.500000,96.516663,531800
2018-07-31,102.480003,103.480003,100.779999,102.430000,96.771744,588100
2018-08-01,102.400002,102.680000,101.410004,102.430000,96.771744,301400
2018-08-02,101.639999,103.580002,101.309998,102.980003,97.291351,327400
2018-08-03,102.989998,104.500000,102.849998,104.099998,98.349495,300200
2018-08-06,104.010002,104.949997,103.980003,104.209999,98.453430,279500
2018-08-07,104.160004,104.680000,103.389999,103.550003,97.829872,296500
2018-08-08,103.339996,103.980003,102.870003,102.959999,97.272491,277900
2018-08-09,103.110001,104.070000,103.000000,103.900002,98.160530,265500
2018-08-10,103.370003,104.040001,102.160004,102.379997,96.724503,325600
2018-08-13,102.239998,103.470001,100.940002,101.400002,95.798637,227800
2018-08-14,101.889999,102.500000,101.330002,101.980003,96.346596,176500
2018-08-15,101.559998,101.660004,100.059998,101.339996,95.741951,300500
2018-08-16,101.620003,102.160004,101.349998,101.669998,96.053726,276300
2018-08-17,101.680000,102.989998,101.400002,102.760002,97.083504,131800
2018-08-20,102.919998,103.519997,102.599998,102.860001,97.178001,198600
2018-08-21,102.830002,103.849998,102.830002,103.290001,97.584221,209600
2018-08-22,103.320000,103.400002,102.739998,103.180000,97.480309,103300
2018-08-23,103.320000,103.550003,102.760002,102.910004,97.225220,124400
2018-08-24,102.980003,104.139999,102.980003,103.800003,98.066071,127300
2018-08-27,103.790001,104.839996,103.790001,104.540001,98.765182,175400
2018-08-28,104.559998,105.190002,103.809998,103.889999,98.151070,214900
2018-08-29,104.199997,105.169998,103.769997,104.699997,98.916336,199700
2018-08-30,104.860001,105.769997,103.820000,104.699997,98.916336,231900
2018-08-31,104.620003,105.440002,104.379997,104.709999,98.925781,153000
2018-09-04,105.320000,106.500000,104.580002,106.379997,100.503548,323600
2018-09-05,106.279999,108.779999,106.279999,108.180000,102.204109,334100
2018-09-06,108.400002,109.690002,108.129997,108.949997,102.931580,228400
2018-09-07,108.940002,108.940002,107.790001,107.900002,101.939575,258500
2018-09-10,108.389999,109.080002,107.889999,108.559998,102.563118,212400
2018-09-11,108.260002,108.730003,107.540001,108.519997,102.525337,101600
2018-09-12,108.360001,109.629997,108.120003,109.389999,103.347275,154700
2018-09-13,108.750000,110.900002,108.669998,110.820000,104.698288,273900
2018-09-14,110.769997,112.160004,109.790001,111.970001,105.784767,424200
2018-09-17,112.300003,112.309998,110.910004,111.300003,105.151756,564500
2018-09-18,111.199997,111.790001,109.970001,111.589996,105.425743,202600
2018-09-19,111.669998,111.900002,110.529999,111.129997,104.991150,204300
2018-09-20,111.279999,111.510002,110.190002,110.489998,104.386490,204500
2018-09-21,110.169998,110.849998,109.669998,110.320000,104.225899,473200
2018-09-24,110.199997,111.470001,109.989998,110.379997,104.282570,352400
2018-09-25,110.750000,110.959999,108.620003,108.760002,102.752075,279000
2018-09-26,108.660004,109.489998,108.370003,108.599998,102.600906,629100
2018-09-27,108.599998,109.190002,108.160004,108.339996,102.355263,255600
2018-09-28,108.209999,108.889999,107.550003,107.739998,101.788406,416900
2018-10-01,108.050003,109.199997,107.370003,107.769997,101.816757,208600
2018-10-02,107.930000,108.610001,107.599998,108.150002,102.175774,210300
2018-10-03,108.510002,108.629997,107.529999,108.000000,102.034058,361200
2018-10-04,107.790001,107.790001,106.300003,107.089996,101.174316,273300
2018-10-05,107.169998,107.639999,106.959999,107.169998,101.249908,220800
2018-10-08,107.120003,107.849998,106.839996,107.669998,101.722282,164700
2018-10-09,107.389999,107.389999,105.680000,105.720001,99.880005,277500
2018-10-10,105.300003,105.769997,102.120003,102.419998,96.762283,456000
2018-10-11,102.370003,103.459999,101.459999,101.570000,95.959251,312700
2018-10-12,102.680000,103.360001,100.339996,101.650002,96.034828,399100
2018-10-15,101.669998,102.959999,101.050003,102.150002,96.507217,239600
2018-10-16,102.660004,105.769997,102.660004,105.599998,99.766624,231300
2018-10-17,106.089996,106.089996,104.419998,105.019997,99.218666,180900
2018-10-18,104.730003,105.239998,103.830002,104.269997,98.510094,439900
2018-10-19,104.589996,105.209999,104.279999,104.320000,98.557350,271800
2018-10-22,104.610001,104.739998,103.050003,103.970001,98.226692,199300
2018-10-23,102.730003,104.570000,101.720001,103.680000,97.952675,479500
2018-10-24,103.629997,103.820000,99.879997,100.080002,94.551544,498300
2018-10-25,100.879997,101.970001,100.510002,101.290001,95.694717,299800
2018-10-26,100.449997,101.050003,99.309998,100.360001,94.816093,423800
2018-10-29,101.320000,102.070000,99.139999,100.160004,94.627136,271300
2018-10-30,100.040001,101.410004,99.339996,101.370003,96.096512,318600
2018-10-31,102.430000,103.070000,101.849998,101.959999,96.655807,417100
2018-11-01,102.690002,103.470001,102.389999,103.180000,97.812340,392600
2018-11-02,97.050003,105.330002,95.059998,103.800003,98.400101,959300
2018-11-05,103.989998,104.480003,101.250000,101.879997,96.579964,481500
2018-11-06,101.639999,104.769997,101.489998,104.099998,98.684486,381300
2018-11-07,104.879997,105.260002,103.339996,105.110001,99.641937,340200
2018-11-08,104.949997,105.769997,104.599998,105.129997,99.660904,368400
2018-11-09,104.959999,105.800003,103.129997,104.290001,98.864586,227100
2018-11-12,104.160004,104.349998,101.580002,101.769997,96.475708,343100
2018-11-13,102.330002,103.459999,101.540001,102.379997,97.053955,225200
2018-11-14,103.040001,103.910004,101.709999,102.080002,96.769562,163200
2018-11-15,101.550003,104.830002,101.209999,104.790001,99.338570,261000
2018-11-16,104.190002,107.150002,104.190002,106.279999,100.751068,235400
2018-11-19,106.199997,106.650002,104.709999,105.180000,99.708290,192700
2018-11-20,104.620003,105.430000,103.370003,104.309998,98.883560,246800
2018-11-21,104.680000,105.190002,103.150002,103.500000,98.115700,221600
2018-11-23,103.000000,104.419998,102.980003,103.900002,98.494888,75400
2018-11-26,104.720001,104.989998,102.949997,103.690002,98.295815,231700
2018-11-27,103.300003,103.320000,102.089996,102.300003,96.978127,213400
2018-11-28,102.800003,104.070000,101.680000,104.029999,98.618118,327800
2018-11-29,103.720001,104.930000,103.690002,103.849998,98.447472,238400
2018-11-30,103.660004,104.550003,103.250000,104.050003,98.637077,330400
2018-12-03,105.230003,105.510002,102.449997,104.459999,99.025742,292000
2018-12-04,104.860001,104.860001,102.830002,102.940002,97.584824,273100
2018-12-06,102.000000,102.000000,98.349998,101.629997,96.342972,302900
2018-12-07,100.889999,102.849998,99.099998,99.769997,94.579735,226100
2018-12-10,99.430000,99.860001,98.220001,99.110001,93.954071,161100
2018-12-11,100.099998,101.019997,98.279999,98.669998,93.536949,192600
2018-12-12,100.099998,100.940002,99.750000,99.930000,94.731400,240900
2018-12-13,100.419998,101.269997,99.510002,100.320000,95.101120,167800
2018-12-14,100.040001,100.959999,99.129997,100.339996,95.120071,187100
2018-12-17,99.839996,100.650002,98.040001,98.639999,93.508514,313900
2018-12-18,99.430000,100.269997,97.269997,97.940002,92.844940,231000
2018-12-19,98.279999,98.839996,95.269997,95.589996,90.617188,268300
2018-12-20,95.510002,96.150002,93.669998,95.010002,90.067383,248100
2018-12-21,94.760002,96.610001,93.510002,93.550003,88.683319,588800
2018-12-24,92.860001,92.860001,89.669998,89.699997,85.033607,168300
2018-12-26,89.720001,92.010002,89.720001,91.769997,86.995895,394400
2018-12-27,90.699997,92.480003,90.010002,92.370003,87.564697,467500
2018-12-28,92.599998,93.910004,92.050003,92.699997,87.877541,437400
2018-12-31,92.820000,94.070000,92.660004,94.070000,89.176270,246900
2019-01-02,92.730003,92.730003,89.449997,90.180000,85.488609,517500
2019-01-03,88.970001,90.209999,88.260002,89.089996,84.455322,637200
2019-01-04,90.099998,91.900002,89.290001,91.070000,86.332329,433600
2019-01-07,90.599998,93.489998,90.580002,91.949997,87.166542,525400
2019-01-08,92.820000,94.099998,91.760002,93.519997,88.654869,379600
2019-01-09,93.860001,94.199997,93.209999,93.480003,88.616959,195700
2019-01-10,93.139999,94.820000,93.129997,94.580002,89.659737,205800
2019-01-11,94.669998,94.750000,93.430000,94.730003,89.801941,248200
2019-01-14,94.279999,94.849998,93.739998,93.959999,89.071960,210500
2019-01-15,93.970001,95.400002,93.900002,94.809998,89.877747,213900
2019-01-16,94.820000,95.349998,94.389999,94.709999,89.782982,187100
2019-01-17,94.389999,96.169998,94.379997,95.930000,90.939507,265500
2019-01-18,96.099998,97.970001,95.879997,97.690002,92.607948,237400
2019-01-22,97.419998,98.250000,95.120003,96.440002,91.422974,304000
2019-01-23,96.699997,97.769997,96.250000,97.379997,92.314064,266300
2019-01-24,97.250000,98.059998,96.709999,97.129997,92.077049,135300
2019-01-25,97.910004,98.349998,97.070000,97.389999,92.323547,116300
2019-01-28,97.389999,98.510002,97.279999,97.879997,92.788055,217900
2019-01-29,97.419998,98.419998,97.419998,97.940002,93.168571,161600
2019-01-30,98.099998,98.800003,97.620003,97.959999,93.187592,292500
2019-01-31,98.000000,99.279999,97.239998,99.120003,94.291092,346500
2019-02-01,99.330002,99.980003,99.050003,99.550003,94.700142,269600
2019-02-04,99.419998,99.889999,98.519997,99.849998,94.985519,137200
2019-02-05,99.949997,101.129997,99.419998,101.070000,96.146080,288000
2019-02-06,100.620003,102.000000,100.580002,101.589996,96.640739,206800
2019-02-07,101.129997,102.040001,100.839996,101.949997,96.983215,202100
2019-02-08,101.570000,102.309998,100.959999,101.389999,96.450508,184300
2019-02-11,101.879997,102.449997,101.239998,101.699997,96.745392,239100
2019-02-12,102.300003,102.690002,101.739998,102.320000,97.335175,230000
2019-02-13,102.709999,103.510002,102.260002,102.800003,97.791809,229700
2019-02-14,102.239998,103.029999,101.559998,101.769997,96.811996,234000
2019-02-15,102.320000,102.459999,101.349998,101.940002,96.973709,235800
2019-02-19,101.839996,102.029999,101.260002,101.550003,96.602715,378800
2019-02-20,101.470001,102.660004,101.309998,102.260002,97.278114,282100
2019-02-21,102.300003,104.000000,100.639999,103.120003,98.096214,508600
2019-02-22,102.480003,103.550003,101.239998,102.050003,97.078339,303400
2019-02-25,102.269997,102.599998,101.110001,101.559998,96.612213,336100
2019-02-26,101.209999,101.669998,100.930000,101.309998,96.374374,302500
2019-02-27,102.019997,102.300003,100.790001,101.410004,96.469521,375300
2019-02-28,101.260002,102.050003,100.970001,101.730003,96.773933,311500
2019-03-01,102.209999,102.209999,100.690002,100.809998,95.898758,245900
2019-03-04,101.250000,102.150002,100.629997,101.610001,96.659782,324000
2019-03-05,101.680000,102.269997,101.330002,101.470001,96.526596,211000
2019-03-06,101.529999,102.019997,100.430000,100.489998,95.594345,127500
2019-03-07,100.199997,100.629997,99.360001,99.879997,95.014053,151600
2019-03-08,99.209999,100.620003,99.209999,100.470001,95.575310,146300
2019-03-11,100.599998,102.070000,100.570000,102.019997,97.049805,175300
2019-03-12,102.059998,102.910004,102.050003,102.260002,97.278114,176700
2019-03-13,102.500000,103.339996,102.089996,102.279999,97.297127,287600
2019-03-14,102.339996,103.040001,101.809998,102.889999,97.877426,169400
2019-03-15,102.919998,103.580002,102.580002,103.050003,98.029617,278600
2019-03-18,103.220001,103.839996,102.849998,103.709999,98.657478,132800
2019-03-19,104.220001,104.589996,103.239998,103.599998,98.552826,188800
2019-03-20,103.419998,104.830002,102.860001,103.949997,98.885780,181300
2019-03-21,103.570000,105.680000,103.570000,105.540001,100.398338,194000
2019-03-22,105.260002,105.260002,103.500000,103.830002,98.771622,213200
2019-03-25,103.550003,104.970001,103.019997,104.510002,99.418503,163900
2019-03-26,105.000000,106.379997,104.699997,105.440002,100.303185,262300
2019-03-27,105.519997,106.489998,105.129997,105.519997,100.379280,179500
2019-03-28,105.760002,106.389999,105.419998,106.190002,101.016632,129900
2019-03-29,106.099998,106.680000,105.470001,106.389999,101.206902,337900
2019-04-01,106.910004,107.820000,106.209999,107.709999,102.462593,234000
2019-04-02,107.800003,107.800003,106.660004,107.220001,101.996475,194600
2019-04-03,107.610001,108.080002,107.160004,107.470001,102.234291,201200
2019-04-04,107.680000,108.160004,107.290001,108.099998,102.833580,164000
2019-04-05,107.570000,108.959999,107.570000,108.739998,103.442436,161400
2019-04-08,108.650002,109.269997,107.989998,108.989998,103.680252,149600
2019-04-09,108.389999,108.559998,107.519997,108.160004,102.890686,183400
2019-04-10,108.220001,109.300003,107.949997,109.040001,103.727791,166200
2019-04-11,109.290001,109.860001,108.980003,109.660004,104.317596,228900
2019-04-12,109.949997,110.699997,109.790001,110.309998,104.935944,185900
2019-04-15,110.339996,110.500000,109.489998,109.889999,104.536400,190500
2019-04-16,109.809998,109.970001,108.760002,109.620003,104.279564,197600
2019-04-17,109.680000,109.750000,107.589996,107.699997,102.453072,150500
2019-04-18,107.930000,108.379997,107.300003,108.209999,102.938225,214600
2019-04-22,108.250000,109.370003,108.250000,108.930000,103.623161,165800
2019-04-23,109.029999,110.529999,109.029999,110.059998,104.698097,220800
2019-04-24,109.970001,110.860001,109.940002,109.940002,104.583961,152200
2019-04-25,109.209999,109.970001,108.830002,109.449997,104.117821,132400
2019-04-26,109.709999,111.650002,109.699997,111.419998,105.991867,138900
2019-04-29,111.379997,111.720001,110.760002,111.320000,105.896721,137600
2019-04-30,110.750000,111.809998,109.930000,111.239998,106.163948,277600
2019-05-01,112.269997,114.660004,111.550003,112.809998,107.662300,336100
2019-05-02,112.809998,113.120003,111.620003,113.000000,107.843636,345200
2019-05-03,113.300003,114.139999,112.730003,113.849998,108.654869,310200
2019-05-06,112.540001,115.519997,112.540001,115.019997,109.771469,263000
2019-05-07,113.980003,114.680000,113.139999,113.970001,108.769379,159500
2019-05-08,113.779999,114.480003,113.309998,113.989998,108.788452,169400
2019-05-09,113.379997,113.790001,112.760002,113.000000,107.843636,259300
2019-05-10,112.720001,113.709999,112.180000,113.599998,108.416267,225100
2019-05-13,111.910004,113.169998,111.290001,112.800003,107.652763,160100
2019-05-14,113.389999,114.360001,112.889999,112.980003,107.824539,132600
2019-05-15,112.760002,113.769997,112.360001,113.239998,108.072670,116500
2019-05-16,113.379997,114.500000,113.260002,114.110001,108.902985,218800
2019-05-17,113.489998,114.459999,113.489998,113.779999,108.588051,151800
2019-05-20,113.190002,113.809998,112.830002,113.040001,107.881813,175600
2019-05-21,113.510002,113.889999,113.089996,113.480003,108.301743,156300
2019-05-22,113.769997,113.980003,113.000000,113.150002,107.986801,146800
2019-05-23,112.540001,113.690002,112.040001,112.959999,107.805450,119600
2019-05-24,113.290001,113.870003,112.750000,112.930000,107.776840,117700
2019-05-28,113.040001,113.620003,112.690002,112.900002,107.748207,259200
2019-05-29,112.540001,113.440002,112.279999,112.699997,107.557327,188200
2019-05-30,112.730003,113.629997,112.540001,113.510002,108.330353,128700
2019-05-31,112.529999,113.730003,111.500000,113.269997,108.101295,247400
2019-06-03,113.410004,115.000000,113.410004,114.029999,108.826637,297400
2019-06-04,114.699997,115.980003,113.680000,115.720001,110.439514,483400
2019-06-05,115.900002,117.180000,115.410004,117.129997,111.785179,392000
2019-06-06,117.209999,120.389999,117.209999,120.230003,114.743721,319800
2019-06-07,120.000000,122.599998,119.919998,121.919998,116.356613,427800
2019-06-10,122.190002,123.279999,121.629997,123.220001,117.597275,253200
2019-06-11,124.000000,124.449997,121.209999,122.580002,116.986488,365600
2019-06-12,122.989998,122.989998,121.190002,121.620003,116.070290,273400
2019-06-13,121.500000,122.099998,120.309998,120.720001,115.211372,166500
2019-06-14,120.459999,120.510002,119.570000,120.089996,114.610115,187300
2019-06-17,120.040001,120.839996,119.790001,120.169998,114.686462,136300
2019-06-18,120.589996,120.699997,119.379997,119.489998,114.037483,208300
2019-06-19,119.629997,120.000000,118.820000,119.410004,113.961151,340200
2019-06-20,120.889999,121.000000,118.279999,119.809998,114.342888,335100
2019-06-21,119.320000,119.849998,117.430000,119.379997,113.932510,603600
2019-06-24,119.500000,119.500000,118.480003,118.779999,113.359894,187700
2019-06-25,119.000000,121.790001,118.879997,121.059998,115.535835,300700
2019-06-26,121.239998,121.250000,119.099998,119.239998,113.798897,236700
2019-06-27,119.389999,121.809998,119.389999,121.550003,116.003487,247700
2019-06-28,121.620003,124.750000,121.620003,124.339996,118.666161,831100
2019-07-01,125.000000,126.199997,123.120003,124.269997,118.599373,322000
2019-07-02,124.370003,124.709999,123.220001,123.540001,117.902695,402400
2019-07-03,124.000000,125.919998,124.000000,125.919998,120.174065,188600
2019-07-05,125.209999,125.260002,123.010002,124.610001,118.923859,255300
2019-07-08,125.500000,125.500000,123.639999,123.989998,118.332130,199600
2019-07-09,123.790001,124.529999,123.790001,124.070000,118.408508,235000
2019-07-10,124.629997,125.790001,123.349998,123.580002,117.940857,169900
2019-07-11,123.269997,124.120003,123.010002,124.019997,118.360779,226400
2019-07-12,124.190002,124.190002,123.209999,123.410004,117.778610,241000
2019-07-15,123.150002,123.959999,122.690002,122.919998,117.310982,189600
2019-07-16,123.120003,123.360001,122.300003,123.160004,117.540031,230800
2019-07-17,123.120003,124.430000,123.120003,123.529999,117.893135,267300
2019-07-18,123.150002,124.449997,123.029999,124.360001,118.685265,173900
2019-07-19,124.709999,124.949997,123.360001,123.400002,117.769073,226000
2019-07-22,123.510002,123.889999,122.820000,123.160004,117.540031,153800
2019-07-23,123.889999,124.709999,123.379997,124.510002,118.828415,183600
2019-07-24,124.010002,124.550003,122.839996,123.290001,117.664101,215300
2019-07-25,123.000000,124.279999,122.680000,122.919998,117.310982,273700
2019-07-26,123.129997,124.769997,122.930000,124.489998,118.809334,198000
2019-07-29,124.449997,125.660004,123.540001,124.940002,119.238792,277400
2019-07-30,123.800003,124.570000,122.959999,123.809998,118.501808,221700
2019-07-31,123.489998,123.860001,119.940002,121.019997,115.831429,621400
2019-08-01,120.190002,120.190002,114.839996,117.559998,112.519783,533000
2019-08-02,116.610001,118.339996,115.650002,118.019997,112.960045,316600
2019-08-05,116.440002,119.029999,116.250000,117.080002,112.060356,462500
2019-08-06,117.550003,120.809998,117.379997,119.720001,114.587173,356400
2019-08-07,119.099998,122.260002,118.699997,121.660004,116.443993,268700
2019-08-08,122.480003,124.000000,121.589996,122.870003,117.602104,374300
2019-08-09,122.739998,123.230003,121.050003,121.080002,115.888870,186400
2019-08-12,121.019997,121.680000,119.919998,120.019997,114.874290,135600
2019-08-13,119.779999,121.809998,119.050003,121.220001,116.022865,216300
2019-08-14,120.010002,120.730003,118.989998,119.089996,113.984169,375800
2019-08-15,119.250000,120.250000,117.949997,118.330002,113.256767,238400
2019-08-16,118.910004,120.739998,117.949997,120.250000,115.094437,197800
2019-08-19,121.199997,121.480003,120.000000,120.220001,115.065742,206400
2019-08-20,120.099998,120.099998,118.459999,118.879997,113.783173,141800
2019-08-21,119.660004,119.830002,118.889999,119.330002,114.213882,298500
2019-08-22,119.830002,120.720001,119.040001,120.540001,115.372017,227100
2019-08-23,120.550003,121.330002,119.889999,120.260002,115.104004,296100
2019-08-26,120.720001,121.230003,119.910004,120.989998,115.802711,237100
2019-08-27,121.480003,121.830002,120.809998,121.500000,116.290848,183000
2019-08-28,121.489998,122.139999,120.629997,121.860001,116.635422,221100
2019-08-29,122.879997,123.440002,121.150002,121.690002,116.472710,184600
2019-08-30,122.379997,123.320000,121.230003,122.220001,116.979996,183700
2019-09-03,120.809998,121.080002,118.570000,119.650002,114.520180,262000
2019-09-04,120.730003,122.050003,120.190002,121.940002,116.711983,160800
2019-09-05,122.989998,123.209999,120.980003,121.199997,116.003700,230100
2019-09-06,120.959999,121.839996,120.320000,120.879997,115.697433,239300
2019-09-09,121.570000,121.570000,118.769997,119.099998,113.993752,232900
2019-09-10,118.980003,119.320000,116.120003,119.110001,114.003326,258200
2019-09-11,118.900002,119.529999,116.720001,118.629997,113.543900,231700
2019-09-12,119.080002,119.699997,117.980003,118.050003,112.988777,163300
2019-09-13,118.550003,118.970001,117.660004,118.400002,113.323761,269900
2019-09-16,117.720001,117.720001,115.870003,116.480003,111.486084,192100
2019-09-17,116.199997,117.860001,116.070000,117.010002,111.993362,216700
2019-09-18,116.889999,118.949997,116.559998,118.300003,113.228043,253400
2019-09-19,118.330002,118.949997,117.639999,117.849998,112.797340,304200
2019-09-20,118.139999,119.019997,117.559998,118.050003,112.988777,527900
2019-09-23,117.610001,118.970001,117.610001,118.099998,113.036621,164300
2019-09-24,118.599998,119.489998,118.250000,118.510002,113.429047,187100
2019-09-25,118.709999,119.440002,118.669998,119.120003,114.012886,202100
2019-09-26,119.570000,119.680000,118.519997,118.919998,113.821465,117900
2019-09-27,119.209999,119.309998,118.059998,118.669998,113.582176,149100
2019-09-30,118.949997,119.410004,117.839996,118.449997,113.371613,219700
2019-10-01,119.290001,119.730003,117.500000,117.669998,112.625053,143300
2019-10-02,117.000000,117.019997,115.059998,115.349998,110.404518,225600
2019-10-03,115.000000,115.230003,113.779999,114.989998,110.059959,241100
2019-10-04,115.309998,117.620003,115.089996,117.330002,112.299629,162400
2019-10-07,116.690002,117.449997,116.239998,116.559998,111.562645,216100
2019-10-08,116.010002,117.760002,114.510002,114.779999,109.858963,221900
2019-10-09,115.820000,116.889999,115.379997,116.480003,111.486084,134700
2019-10-10,116.480003,117.239998,115.730003,116.309998,111.323372,102400
2019-10-11,116.919998,118.000000,116.239998,116.330002,111.342491,213700
2019-10-14,116.320000,116.879997,115.739998,115.849998,110.883080,131900
2019-10-15,116.339996,116.639999,115.050003,115.180000,110.241798,182500
2019-10-16,115.139999,115.599998,114.400002,115.470001,110.519363,213700
2019-10-17,115.570000,117.080002,115.500000,116.550003,111.553085,153800
2019-10-18,116.419998,118.000000,116.419998,117.779999,112.730347,219100
2019-10-21,118.370003,119.110001,117.800003,117.900002,112.845192,142900
2019-10-22,118.029999,118.050003,116.620003,116.660004,111.658356,85400
2019-10-23,116.529999,117.930000,116.500000,117.370003,112.337929,104800
2019-10-24,117.449997,118.129997,116.739998,117.339996,112.309204,122500
2019-10-25,117.209999,118.620003,117.209999,117.879997,112.826035,120300
2019-10-28,117.959999,118.800003,117.839996,118.199997,113.132332,134100
2019-10-29,117.449997,119.129997,117.449997,118.510002,113.775566,136600
2019-10-30,118.580002,119.629997,117.769997,119.250000,114.486008,148200
2019-10-31,119.040001,119.629997,117.620003,118.150002,113.429939,316000
2019-11-01,113.669998,115.559998,109.540001,110.790001,106.363983,583300
2019-11-04,111.010002,111.760002,108.410004,108.669998,104.328674,553700
2019-11-05,109.209999,110.250000,108.430000,108.660004,104.319069,385300
2019-11-06,108.669998,109.809998,108.419998,109.489998,105.115906,369800
2019-11-07,109.529999,110.529999,108.910004,109.400002,105.029510,189400
2019-11-08,109.309998,110.930000,108.870003,109.000000,104.645485,303500
2019-11-11,108.480003,109.760002,108.480003,108.580002,104.242256,181500
2019-11-12,108.639999,109.300003,108.160004,108.220001,103.896652,185400
2019-11-13,108.320000,110.070000,108.019997,109.620003,105.240723,385400
2019-11-14,109.480003,110.580002,109.480003,110.470001,106.056770,224000
2019-11-15,110.730003,110.730003,109.699997,109.959999,105.567131,307300
2019-11-18,109.919998,110.949997,109.879997,110.339996,105.931961,352100
2019-11-19,110.730003,111.400002,110.449997,110.500000,106.085548,258700
2019-11-20,110.120003,111.849998,110.120003,110.699997,106.277565,961400
2019-11-21,111.230003,112.050003,110.180000,111.300003,106.853600,244200
2019-11-22,111.650002,111.669998,110.000000,110.120003,105.720757,151700
2019-11-25,110.260002,111.059998,110.169998,110.949997,106.517586,264400
2019-11-26,111.519997,112.650002,110.970001,112.559998,108.063263,221900
2019-11-27,112.989998,113.580002,112.629997,112.830002,108.322487,145500
2019-11-29,112.639999,113.209999,111.940002,112.120003,107.640846,89300
2019-12-02,112.519997,112.720001,111.620003,112.010002,107.535240,273300
2019-12-03,111.510002,113.309998,111.139999,112.709999,108.207260,246400
2019-12-04,112.739998,113.480003,111.739998,111.779999,107.314415,284600
2019-12-05,111.889999,112.660004,111.650002,111.949997,107.477615,243700
2019-12-06,112.790001,113.000000,111.800003,112.080002,107.602440,322100
2019-12-09,112.309998,112.839996,111.690002,112.629997,108.130463,255000
2019-12-10,112.470001,112.830002,111.339996,111.940002,107.468040,219500
2019-12-11,111.970001,112.769997,111.900002,112.570000,108.072861,141100
2019-12-12,112.510002,114.440002,112.510002,114.180000,109.618546,407000
2019-12-13,113.980003,115.389999,113.330002,113.970001,109.416946,380400
2019-12-16,114.459999,114.709999,113.300003,114.320000,109.752960,194200
2019-12-17,114.129997,114.750000,113.059998,113.349998,108.821709,248900
2019-12-18,113.349998,113.370003,112.360001,113.080002,108.562492,204000
2019-12-19,113.160004,113.480003,112.800003,113.260002,108.735306,172100
2019-12-20,113.720001,115.139999,113.720001,114.959999,110.367393,473500
2019-12-23,114.930000,115.370003,114.230003,115.370003,110.761009,144300
2019-12-24,115.309998,115.639999,114.680000,114.730003,110.146584,63800
2019-12-26,114.739998,114.860001,113.800003,114.820000,110.232979,110900
2019-12-27,115.220001,115.349998,114.150002,115.019997,110.424980,87800
2019-12-30,114.940002,115.800003,114.669998,115.760002,111.135429,193000
2019-12-31,115.720001,116.199997,115.019997,115.620003,111.001022,310700
2020-01-02,115.500000,116.480003,112.930000,113.680000,109.138519,362700
2020-01-03,112.809998,114.839996,112.809998,114.040001,109.484138,221500
2020-01-06,113.660004,114.489998,113.559998,114.050003,109.493744,282400
2020-01-07,113.559998,114.010002,112.739998,112.910004,108.399292,234700
2020-01-08,113.080002,114.180000,113.080002,113.220001,108.696899,331000
2020-01-09,113.769997,115.059998,113.320000,114.660004,110.079376,329100
2020-01-10,114.660004,116.169998,114.570000,115.790001,111.164230,196800
2020-01-13,115.489998,116.559998,115.370003,116.199997,111.557846,248500
2020-01-14,116.250000,116.320000,115.139999,116.129997,111.490646,160800
2020-01-15,116.320000,117.230003,115.900002,116.709999,112.047470,241500
2020-01-16,117.209999,118.269997,117.180000,118.220001,113.497162,187300
2020-01-17,118.309998,118.610001,117.059998,117.320000,112.633125,190600
2020-01-21,116.660004,116.769997,115.349998,115.629997,111.010612,189300
2020-01-22,115.690002,116.430000,115.480003,115.669998,111.049026,141800
2020-01-23,115.330002,119.019997,114.769997,117.370003,112.681114,301000
2020-01-24,117.400002,118.160004,116.620003,117.120003,112.441093,213000
2020-01-27,115.540001,117.260002,115.220001,116.489998,111.836258,239100
2020-01-28,116.410004,116.580002,115.570000,115.970001,111.682190,178600
2020-01-29,115.910004,117.080002,115.529999,115.940002,111.653282,211200
2020-01-30,115.019997,117.010002,114.330002,116.540001,112.231094,153200
2020-01-31,115.910004,116.389999,115.139999,115.510002,111.239189,300700
2020-02-03,115.610001,117.540001,115.510002,117.239998,112.905212,271300
2020-02-04,117.790001,118.489998,116.199997,116.949997,112.625938,313700
2020-02-05,117.139999,118.290001,116.750000,117.870003,113.511932,188100
2020-02-06,118.050003,118.949997,117.459999,117.529999,113.184494,247800
2020-02-07,117.070000,117.680000,116.220001,116.699997,112.385178,144500
2020-02-10,116.419998,117.099998,115.480003,115.800003,111.518471,142600
2020-02-11,116.019997,116.889999,115.400002,116.050003,111.759216,197600
2020-02-12,116.129997,116.209999,114.300003,114.709999,110.468773,448200
2020-02-13,114.580002,116.550003,113.690002,116.199997,111.903671,200400
2020-02-14,116.599998,117.750000,116.169998,116.669998,112.356308,216800
2020-02-18,116.470001,116.629997,115.080002,115.260002,110.998436,271300
2020-02-19,115.370003,116.620003,114.720001,115.010002,110.757668,289200
2020-02-20,114.610001,115.669998,113.739998,114.930000,110.680626,378400
2020-02-21,111.519997,114.650002,109.160004,111.980003,107.839706,720600
2020-02-24,110.500000,111.209999,109.169998,109.209999,105.172127,447900
2020-02-25,109.220001,109.570000,106.709999,106.940002,102.986061,641400
2020-02-26,104.000000,106.559998,102.769997,104.680000,100.809608,504500
2020-02-27,103.400002,104.760002,101.949997,102.400002,98.613914,670500
2020-02-28,99.730003,102.209999,99.320000,101.070000,97.333084,690800
2020-03-02,101.620003,103.760002,100.809998,103.580002,99.750282,331800
2020-03-03,103.790001,105.720001,102.199997,102.760002,98.960602,353300
2020-03-04,105.389999,107.629997,104.440002,107.440002,103.467560,294500
2020-03-05,105.339996,105.800003,102.639999,103.980003,100.135498,273800
2020-03-06,101.610001,107.410004,101.330002,107.300003,103.332741,624000
2020-03-09,102.739998,105.000000,99.480003,101.449997,97.699036,597100
2020-03-10,103.599998,103.989998,99.389999,103.989998,100.145119,522300
2020-03-11,101.669998,101.669998,97.919998,99.080002,95.416664,705800
2020-03-12,92.480003,96.400002,87.500000,94.400002,90.909698,843100
2020-03-13,98.080002,99.440002,91.120003,96.389999,92.826126,596000
2020-03-16,87.400002,94.480003,87.400002,87.879997,84.630775,667400
2020-03-17,89.949997,96.949997,89.480003,96.449997,92.883904,595700
2020-03-18,91.690002,96.980003,90.339996,96.750000,93.172806,762000
2020-03-19,96.489998,101.220001,93.589996,98.879997,95.224052,354700
2020-03-20,98.809998,99.980003,89.129997,92.510002,89.089584,727300
2020-03-23,92.059998,93.239998,79.839996,83.930000,80.826813,698800
2020-03-24,87.269997,88.320000,82.690002,88.059998,84.804108,535600
2020-03-25,89.000000,93.660004,86.220001,90.180000,86.845726,576200
2020-03-26,90.849998,97.339996,90.220001,96.199997,92.643135,447000
2020-03-27,94.540001,95.839996,92.099998,94.000000,90.524490,482000
2020-03-30,94.970001,100.959999,94.370003,100.480003,96.764900,435400
2020-03-31,100.519997,102.750000,97.440002,99.540001,95.859657,531000
2020-04-01,97.709999,98.680000,95.440002,96.209999,92.652779,296500
2020-04-02,95.809998,97.139999,94.120003,96.150002,92.594994,455700
2020-04-03,94.879997,97.419998,93.360001,94.190002,90.707466,370300
2020-04-06,97.070000,101.180000,97.070000,100.760002,97.034554,503200
2020-04-07,103.550003,103.550003,99.220001,101.120003,97.381256,378000
2020-04-08,102.650002,105.290001,100.639999,104.110001,100.260689,328500
2020-04-09,105.040001,108.029999,104.230003,107.269997,103.303856,399300
2020-04-13,106.989998,107.430000,102.300003,102.349998,98.565758,234000
2020-04-14,104.559998,105.370003,103.360001,104.019997,100.174011,239700
2020-04-15,102.279999,104.190002,100.610001,100.930000,97.198265,441400
2020-04-16,103.029999,103.029999,99.680000,101.849998,98.084244,294000
2020-04-17,103.860001,105.019997,102.400002,102.940002,99.133942,256200
2020-04-20,101.860001,107.940002,101.129997,106.940002,102.986061,856400
2020-04-21,105.849998,106.989998,104.120003,106.120003,102.196381,475500
2020-04-22,106.989998,107.040001,104.120003,106.300003,102.369713,436400
2020-04-23,106.620003,107.320000,104.949997,105.019997,101.137047,347600
2020-04-24,105.410004,105.410004,103.089996,104.120003,100.270309,377000
2020-04-27,109.330002,114.099998,106.879997,112.580002,108.417511,457700
2020-04-28,112.599998,114.660004,110.989998,111.180000,107.412750,274600
2020-04-29,112.559998,113.629997,109.820000,110.080002,106.350029,236600
2020-04-30,108.989998,110.070000,106.339996,107.080002,103.451675,730600
2020-05-01,110.559998,110.559998,104.709999,106.139999,102.543533,506200
2020-05-04,105.529999,107.330002,105.080002,106.809998,103.190842,324300
2020-05-05,106.779999,107.629997,105.400002,105.559998,101.983185,332500
2020-05-06,106.769997,107.050003,104.760002,104.860001,101.306908,234000
2020-05-07,105.519997,106.889999,105.139999,105.470001,101.896248,285200
2020-05-08,106.980003,107.989998,106.559998,107.529999,103.886436,257000
2020-05-11,106.660004,107.510002,106.080002,106.309998,102.707779,344000
2020-05-12,106.430000,106.430000,103.849998,103.949997,100.427734,233300
2020-05-13,103.389999,103.389999,101.650002,102.419998,98.949577,267100
2020-05-14,101.010002,102.620003,99.110001,102.459999,98.988228,246200
2020-05-15,101.470001,101.699997,100.050003,101.500000,98.060768,476400
2020-05-18,104.070000,105.150002,102.949997,104.150002,100.620964,304500
2020-05-19,103.790001,105.750000,103.160004,103.730003,100.215202,214700
2020-05-20,104.449997,105.519997,104.080002,104.410004,100.872162,146200
2020-05-21,104.440002,105.709999,104.440002,105.089996,101.529106,233900
2020-05-22,104.970001,105.250000,103.709999,105.099998,101.538773,151200
2020-05-26,107.339996,110.190002,106.779999,109.550003,105.837997,332200
2020-05-27,111.070000,112.650002,110.349998,112.550003,108.736336,290400
2020-05-28,113.330002,113.330002,110.940002,111.599998,107.818527,233600
2020-05-29,111.099998,111.529999,109.709999,111.389999,107.615623,215300
2020-06-01,111.279999,111.879997,110.599998,111.419998,107.644630,277000
2020-06-02,111.750000,112.470001,110.940002,112.070000,108.272598,224900
2020-06-03,112.699997,114.099998,112.699997,113.279999,109.441597,196600
2020-06-04,113.500000,113.500000,111.019997,112.139999,108.340233,182500
2020-06-05,113.800003,114.279999,112.910004,113.400002,109.557549,235500
2020-06-08,112.820000,114.000000,112.290001,113.580002,109.731430,244700
2020-06-09,112.779999,113.449997,111.910004,112.470001,108.659050,292100
2020-06-10,113.000000,113.000000,110.820000,111.639999,107.857170,366600
2020-06-11,110.000000,110.610001,104.209999,104.250000,100.717583,376900
2020-06-12,106.690002,107.529999,103.080002,105.360001,101.789970,247300
2020-06-15,103.440002,106.540001,103.070000,105.410004,101.838264,235900
2020-06-16,108.300003,109.089996,106.860001,107.389999,103.751175,252600
2020-06-17,108.190002,108.650002,106.370003,106.910004,103.287445,208800
2020-06-18,106.279999,107.970001,105.970001,106.989998,103.364723,217800
2020-06-19,107.209999,107.989998,106.099998,107.599998,103.954048,303700
2020-06-22,106.940002,107.669998,105.500000,107.550003,103.905754,241900
2020-06-23,108.459999,108.459999,106.919998,107.440002,103.799484,228300
2020-06-24,106.580002,107.519997,105.849998,105.940002,102.350319,433900
2020-06-25,105.410004,107.629997,103.779999,107.599998,103.954048,263600
2020-06-26,107.120003,108.690002,106.169998,107.720001,104.070000,924200
2020-06-29,108.239998,110.190002,107.889999,109.250000,105.548157,189300
2020-06-30,109.129997,112.279999,109.129997,111.980003,108.185654,421800
2020-07-01,111.910004,112.669998,110.949997,112.480003,108.668709,247900
2020-07-02,113.440002,115.010002,113.440002,114.970001,111.074341,271400
2020-07-06,115.989998,116.660004,114.180000,115.260002,111.354523,330900
2020-07-07,114.639999,116.000000,114.180000,115.150002,111.248238,346500
2020-07-08,114.790001,115.750000,112.589996,112.930000,109.103462,205900
2020-07-09,113.160004,114.139999,111.410004,113.760002,109.905327,307200
2020-07-10,114.169998,115.169998,112.400002,114.949997,111.055016,244500
2020-07-13,114.959999,116.269997,113.269997,113.430000,109.586517,289000
2020-07-14,113.760002,116.500000,113.690002,116.309998,112.368927,193600
2020-07-15,117.440002,118.290001,116.540001,117.900002,113.905060,326900
2020-07-16,118.040001,118.489998,116.800003,117.239998,113.267410,252900
2020-07-17,118.000000,119.709999,117.339996,119.400002,115.354233,249000
2020-07-20,119.400002,119.750000,118.269997,119.290001,115.247971,183200
2020-07-21,119.580002,119.870003,117.669998,118.180000,114.175568,394300
2020-07-22,118.250000,118.980003,117.410004,118.500000,114.484726,414600
2020-07-23,118.389999,119.230003,118.089996,118.440002,114.426765,286700
2020-07-24,119.000000,119.790001,118.379997,118.849998,114.822868,244700
2020-07-27,118.830002,120.449997,118.500000,119.849998,115.788979,281800
2020-07-28,119.809998,119.809998,117.779999,118.050003,114.393600,208600
2020-07-29,118.720001,119.410004,117.330002,118.809998,115.130051,251200
2020-07-30,117.750000,118.910004,116.699997,117.910004,114.257919,359800
2020-07-31,115.000000,117.900002,111.220001,115.199997,111.631851,668100
2020-08-03,116.849998,119.680000,114.849998,118.660004,114.984695,292900
2020-08-04,118.949997,120.180000,118.220001,118.620003,114.945938,233100
2020-08-05,119.559998,120.669998,118.220001,118.360001,114.693993,164700
2020-08-06,118.820000,120.110001,116.680000,117.660004,114.015671,246500
2020-08-07,117.070000,119.370003,116.779999,119.250000,115.556419,202300
2020-08-10,119.580002,119.580002,116.900002,117.000000,113.376114,204700
2020-08-11,118.019997,119.349998,116.529999,116.739998,113.124146,214100
2020-08-12,116.919998,118.570000,116.750000,118.089996,114.432343,171800
2020-08-13,117.239998,119.470001,117.239998,118.519997,114.849030,213800
2020-08-14,117.879997,119.639999,117.699997,118.489998,114.819954,134600
2020-08-17,119.139999,119.919998,118.010002,118.250000,114.587402,160500
2020-08-18,117.910004,118.639999,116.769997,117.879997,114.228844,171500
2020-08-19,118.699997,119.370003,117.320000,117.690002,114.044746,145600
2020-08-20,117.059998,118.129997,116.599998,117.550003,113.909081,159400
2020-08-21,117.120003,118.349998,116.400002,117.800003,114.151329,199200
2020-08-24,118.199997,119.760002,118.199997,119.110001,115.420769,224000
2020-08-25,119.540001,119.540001,117.930000,118.129997,114.471100,114400
2020-08-26,117.989998,119.000000,117.559998,118.599998,114.926544,120000
2020-08-27,118.629997,120.620003,118.500000,120.050003,116.331635,209800
2020-08-28,119.699997,119.699997,118.000000,118.129997,114.471100,295200
2020-08-31,118.580002,119.160004,117.779999,118.389999,114.723061,182500
2020-09-01,117.940002,119.639999,117.940002,119.500000,115.798683,133900
2020-09-02,119.750000,122.440002,118.970001,122.260002,118.473198,153800
2020-09-03,122.279999,122.279999,118.500000,119.169998,115.478897,227200
2020-09-04,120.040001,120.300003,116.489998,118.720001,115.042847,224200
2020-09-08,118.129997,118.129997,116.040001,116.059998,112.465225,164600
2020-09-09,116.639999,118.629997,116.639999,117.889999,114.238548,154000
2020-09-10,118.169998,118.910004,116.709999,117.190002,113.560226,253500
2020-09-11,117.879997,118.709999,117.129997,118.360001,114.693993,124600
2020-09-14,119.370003,120.059998,118.470001,119.080002,115.391685,129000
2020-09-15,119.440002,119.800003,118.120003,118.330002,114.664909,125600
2020-09-16,119.580002,119.580002,117.570000,117.769997,114.122253,232000
2020-09-17,116.500000,117.239998,115.080002,115.959999,112.368324,354500
2020-09-18,116.580002,116.750000,114.230003,115.040001,111.476814,555700
2020-09-21,113.599998,114.040001,111.820000,113.449997,109.936058,251500
2020-09-22,113.970001,114.669998,113.559998,114.330002,110.788811,292400
2020-09-23,114.199997,114.529999,111.709999,112.139999,108.666649,172300
2020-09-24,111.900002,113.169998,111.160004,112.260002,108.782921,274300
2020-09-25,111.459999,112.580002,111.459999,112.099998,108.627869,254100
2020-09-28,113.169998,114.220001,112.040001,112.360001,108.879837,230000
2020-09-29,112.059998,113.349998,111.750000,112.620003,109.131775,230000
2020-09-30,113.269997,114.059998,112.500000,113.199997,109.693810,200500
2020-10-01,113.449997,114.970001,113.139999,113.699997,110.178322,166000
2020-10-02,112.309998,114.180000,112.309998,112.849998,109.354660,166800
2020-10-05,113.360001,114.930000,113.209999,114.550003,111.002007,151300
2020-10-06,115.010002,115.900002,113.919998,114.559998,111.011688,224000
2020-10-07,115.089996,116.169998,114.500000,114.980003,111.418678,173200
2020-10-08,115.800003,116.790001,115.519997,116.519997,112.910980,138000
2020-10-09,118.120003,118.389999,116.190002,116.809998,113.192001,148700
2020-10-12,117.050003,118.830002,116.699997,118.040001,114.383896,138100
2020-10-13,117.730003,118.910004,117.250000,117.559998,113.918762,159000
2020-10-14,117.500000,118.029999,116.040001,116.440002,112.833458,98900
2020-10-15,114.720001,116.589996,114.220001,116.339996,112.736549,116900
2020-10-16,116.709999,117.230003,116.190002,116.349998,112.746239,97700
2020-10-19,116.639999,116.639999,114.580002,115.150002,111.583405,113700
2020-10-20,116.050003,117.559998,115.220001,116.959999,113.337341,192600
2020-10-21,117.269997,118.760002,117.269997,117.739998,114.093185,133700
2020-10-22,117.889999,118.480003,116.750000,118.309998,114.645515,164100
2020-10-23,118.750000,118.970001,117.480003,118.349998,114.684303,105600
2020-10-26,117.349998,117.489998,115.930000,117.459999,113.821869,114100
2020-10-27,117.169998,117.190002,115.610001,115.650002,112.412460,125000
2020-10-28,114.110001,114.610001,112.250000,112.339996,109.195107,170500
2020-10-29,112.300003,113.099998,110.339996,112.940002,109.778320,279100
2020-10-30,116.250000,116.760002,113.540001,114.089996,110.896126,377900
2020-11-02,115.169998,118.290001,114.669998,118.190002,114.881348,215600
2020-11-03,118.500000,121.459999,118.330002,119.559998,116.212997,242400
2020-11-04,120.000000,120.019997,118.099998,119.050003,115.717278,150600
2020-11-05,120.610001,123.099998,120.430000,122.910004,119.469223,185500
2020-11-06,123.589996,124.610001,122.470001,123.599998,120.139900,220300
2020-11-09,127.620003,128.860001,122.110001,123.169998,119.721931,336500
2020-11-10,123.389999,128.800003,122.949997,127.610001,124.037636,326100
2020-11-11,127.750000,127.750000,124.370003,125.269997,121.763145,194700
2020-11-12,124.239998,125.209999,122.589996,124.269997,120.791138,126300
2020-11-13,124.849998,126.000000,124.099998,125.070000,121.568741,126300
2020-11-16,126.279999,127.000000,125.570000,126.860001,123.308640,207400
2020-11-17,126.260002,128.100006,125.699997,127.360001,123.794647,191200
2020-11-18,127.430000,127.860001,125.970001,126.370003,122.832359,173100
2020-11-19,126.699997,127.620003,126.000000,127.230003,123.668289,213900
2020-11-20,127.510002,128.360001,127.190002,127.809998,124.232033,237300
2020-11-23,128.059998,129.119995,126.400002,126.860001,123.308640,182300
2020-11-24,128.160004,128.470001,126.879997,127.879997,124.300087,237200
2020-11-25,128.479996,128.479996,125.769997,126.290001,122.754593,136100
2020-11-27,126.550003,127.300003,126.080002,127.239998,123.678001,67800
2020-11-30,126.790001,126.930000,125.690002,126.320000,122.783752,204600
2020-12-01,127.150002,128.580002,126.419998,127.820000,124.241760,165800
2020-12-02,127.360001,128.050003,125.720001,126.260002,122.725433,133800
2020-12-03,126.070000,127.110001,125.150002,125.870003,122.346367,138700
2020-12-04,125.480003,127.800003,125.480003,127.680000,124.105690,144600
2020-12-07,127.989998,128.990005,127.639999,128.630005,125.029114,115000
2020-12-08,128.289993,130.899994,127.940002,129.190002,125.573410,162100
2020-12-09,129.130005,130.179993,128.660004,129.529999,125.903900,144800
2020-12-10,129.470001,131.089996,129.020004,130.470001,126.817589,247100
2020-12-11,129.589996,131.100006,129.589996,130.449997,126.798141,165800
2020-12-14,131.050003,131.990005,128.199997,128.410004,124.815254,205800
2020-12-15,128.559998,130.649994,128.309998,130.259995,126.613434,158200
2020-12-16,130.990005,131.740005,130.199997,131.100006,127.429947,265400
2020-12-17,131.289993,133.690002,131.000000,133.139999,129.412857,297700
2020-12-18,134.000000,134.669998,133.639999,134.100006,130.345978,656300
2020-12-21,132.779999,135.000000,131.500000,134.889999,131.113846,211700
2020-12-22,134.649994,136.220001,134.009995,134.500000,130.734756,257300
2020-12-23,134.520004,135.750000,134.449997,134.529999,130.763916,191600
2020-12-24,135.000000,136.369995,134.649994,135.699997,131.901169,84200
2020-12-28,136.190002,137.139999,135.059998,135.679993,131.881714,100400
2020-12-29,136.270004,136.750000,134.839996,135.309998,131.522064,94400
2020-12-30,135.910004,137.360001,135.460007,136.389999,132.571838,99000
2020-12-31,136.770004,137.320007,135.610001,136.889999,133.057846,169800
2021-01-04,135.919998,137.970001,133.679993,134.000000,130.248749,315700
2021-01-05,134.130005,135.289993,133.539993,133.699997,129.957153,260500
2021-01-06,134.220001,137.970001,134.220001,137.720001,133.864624,289300
2021-01-07,137.520004,140.000000,136.509995,139.699997,135.789169,192400
2021-01-08,139.570007,140.619995,137.759995,139.070007,135.176834,140600
2021-01-11,139.500000,139.869995,138.380005,138.789993,134.904663,115300
2021-01-12,138.809998,139.229996,137.089996,138.149994,134.282578,199200
2021-01-13,137.949997,139.580002,136.139999,138.580002,134.700531,245000
2021-01-14,138.500000,140.710007,137.520004,139.449997,135.546188,181200
2021-01-15,139.039993,141.330002,138.369995,138.830002,134.943542,149300
2021-01-19,139.580002,140.619995,137.250000,137.259995,133.417480,222300
2021-01-20,137.729996,140.750000,137.490005,140.619995,136.683426,254100
2021-01-21,140.270004,141.130005,138.009995,138.110001,134.243698,208300
2021-01-22,137.860001,138.380005,137.110001,138.190002,134.321472,227800
2021-01-25,138.160004,139.919998,137.850006,139.570007,135.662857,187100
2021-01-26,139.429993,140.000000,137.080002,138.850006,135.312027,125900
2021-01-27,137.529999,137.529999,133.149994,133.250000,129.854691,186900
2021-01-28,134.080002,135.800003,133.610001,135.250000,131.803741,165800
2021-01-29,134.429993,135.360001,131.820007,132.970001,129.581833,377800
2021-02-01,134.130005,134.389999,131.809998,134.089996,130.673294,184700
2021-02-02,135.050003,138.119995,134.740005,136.940002,133.450699,193000
2021-02-03,136.160004,137.300003,135.389999,136.559998,133.080322,134700
2021-02-04,136.119995,138.399994,135.000000,138.000000,134.483673,251100
2021-02-05,139.460007,140.729996,138.720001,140.660004,137.075897,177500
2021-02-08,141.250000,142.000000,140.529999,141.979996,138.362228,171200
2021-02-09,141.960007,142.889999,141.220001,142.169998,138.547394,183000
2021-02-10,143.000000,144.100006,142.509995,143.250000,139.599899,151100
2021-02-11,143.500000,144.320007,142.059998,142.970001,139.327011,195800
2021-02-12,142.380005,144.759995,142.380005,144.630005,140.944717,105300
2021-02-16,144.610001,144.720001,142.899994,143.600006,139.940964,175300
2021-02-17,143.750000,144.179993,142.449997,143.210007,139.560898,200700
2021-02-18,142.619995,143.179993,140.990005,140.990005,137.397476,208700
2021-02-19,138.570007,138.570007,131.610001,132.240005,128.870438,492900
2021-02-22,131.250000,131.369995,127.500000,129.100006,125.810448,347100
2021-02-23,127.820000,128.720001,126.779999,128.279999,125.011330,490700
2021-02-24,128.259995,129.039993,127.800003,128.759995,125.479095,213000
2021-02-25,128.770004,130.910004,128.770004,130.300003,126.979858,378600
2021-02-26,131.059998,131.570007,129.559998,130.070007,126.755707,386500
2021-03-01,130.779999,132.000000,129.880005,130.600006,127.272217,283000
2021-03-02,130.440002,130.660004,129.470001,130.350006,127.028587,367700
2021-03-03,130.369995,132.179993,129.500000,131.050003,127.710762,220400
2021-03-04,130.889999,131.899994,130.130005,130.399994,127.077301,493600
2021-03-05,131.139999,134.139999,130.410004,134.089996,130.673294,204700
2021-03-08,134.830002,138.479996,134.100006,137.710007,134.201065,230600
2021-03-09,138.679993,140.669998,137.679993,137.690002,134.181564,251500
2021-03-10,138.210007,140.119995,137.940002,139.380005,135.828506,150700
2021-03-11,139.190002,140.419998,138.740005,139.380005,135.828506,169100
2021-03-12,140.000000,141.240005,139.259995,140.770004,137.183060,219000
2021-03-15,141.779999,143.029999,141.009995,142.130005,138.508423,356200
2021-03-16,141.710007,142.100006,139.330002,140.500000,136.919952,280700
2021-03-17,139.910004,141.740005,139.380005,141.279999,137.680069,180900
2021-03-18,141.339996,142.470001,140.940002,141.509995,137.904221,174100
2021-03-19,142.059998,142.330002,139.039993,139.309998,135.760284,615000
2021-03-22,138.970001,141.860001,138.259995,141.589996,137.982193,247700
2021-03-23,140.529999,142.559998,140.160004,140.770004,137.183060,330100
2021-03-24,141.160004,144.330002,141.160004,141.839996,138.225830,300800
2021-03-25,141.399994,143.229996,140.449997,142.470001,138.839752,265600
2021-03-26,143.000000,144.820007,142.190002,144.820007,141.129883,286800
2021-03-29,144.240005,145.899994,143.389999,144.770004,141.081161,272200
2021-03-30,144.330002,144.410004,142.600006,143.080002,139.434235,247900
2021-03-31,143.029999,143.470001,141.229996,141.669998,138.060165,408600
2021-04-01,141.990005,143.979996,141.380005,143.869995,140.204071,228200
2021-04-05,144.949997,144.949997,143.339996,144.690002,141.003189,196100
2021-04-06,144.039993,145.990005,143.320007,145.970001,142.250565,206100
2021-04-07,145.279999,145.500000,143.380005,143.589996,139.931213,188000
2021-04-08,143.800003,143.960007,142.190002,143.679993,140.018921,158700
2021-04-09,144.419998,145.300003,143.279999,145.199997,141.500183,151400
2021-04-12,144.679993,146.380005,144.679993,146.210007,142.484467,100800
2021-04-13,146.600006,147.009995,145.440002,146.330002,142.601425,160800
2021-04-14,144.500000,146.149994,144.500000,145.809998,142.094635,185100
2021-04-15,146.919998,147.899994,146.029999,147.199997,143.449234,184800
2021-04-16,149.139999,149.589996,147.570007,148.080002,144.306824,322600
2021-04-19,148.229996,149.789993,147.750000,149.710007,145.895279,203900
2021-04-20,147.000000,150.750000,146.669998,150.419998,146.587189,190300
2021-04-21,150.149994,152.360001,150.149994,151.940002,148.068466,191200
2021-04-22,152.020004,152.020004,149.940002,150.070007,146.246109,278400
2021-04-23,150.289993,151.740005,149.830002,151.449997,147.590927,188100
2021-04-26,151.750000,152.179993,150.899994,150.919998,147.074463,193600
2021-04-27,150.100006,151.669998,149.479996,151.639999,148.149124,214900
2021-04-28,151.429993,153.070007,151.050003,151.119995,147.641098,192000
2021-04-29,151.440002,152.149994,150.399994,150.919998,147.445694,226400
2021-04-30,150.000000,151.940002,147.899994,150.809998,147.338226,365700
2021-05-03,152.160004,153.199997,151.740005,152.460007,148.950256,212900
2021-05-04,152.889999,156.139999,152.889999,155.020004,151.451324,206800
2021-05-05,155.300003,155.300003,153.389999,154.179993,150.630661,186400
2021-05-06,154.130005,156.630005,153.639999,156.520004,152.916794,240600
2021-05-07,155.550003,157.929993,155.550003,157.559998,153.932846,187100
2021-05-10,157.740005,158.970001,155.389999,155.479996,151.900726,226300
2021-05-11,154.550003,155.660004,153.720001,153.990005,150.445038,299700
2021-05-12,153.610001,154.550003,151.610001,151.610001,148.119797,164100
2021-05-13,151.399994,155.289993,151.339996,154.619995,151.060532,308900
2021-05-14,154.970001,155.289993,153.179993,153.539993,150.005356,174000
2021-05-17,153.110001,154.089996,152.229996,153.110001,149.585281,136800
2021-05-18,153.410004,154.000000,150.860001,150.919998,147.445694,172500
2021-05-19,150.000000,151.039993,148.600006,149.539993,146.097443,161400
2021-05-20,149.270004,150.610001,149.039993,149.740005,146.292862,123200
2021-05-21,149.929993,150.580002,148.880005,149.630005,146.185379,134900
2021-05-24,150.470001,150.729996,148.960007,149.259995,145.823898,143000
2021-05-25,149.639999,150.119995,147.470001,147.729996,144.329117,199200
2021-05-26,148.500000,149.389999,147.169998,147.860001,144.456131,113600
2021-05-27,148.619995,149.149994,146.479996,146.770004,143.391251,172600
2021-05-28,147.289993,147.500000,146.419998,147.309998,143.918808,146900
2021-06-01,147.979996,148.809998,146.610001,146.880005,143.498703,173000
2021-06-02,146.850006,147.889999,145.119995,145.660004,142.306763,282800
2021-06-03,145.479996,146.119995,144.740005,145.399994,142.052765,224500
2021-06-04,146.039993,146.259995,144.779999,145.559998,142.209091,151900
2021-06-07,145.529999,146.089996,142.029999,142.520004,139.239059,184800
2021-06-08,142.529999,142.910004,141.119995,142.779999,139.493088,182900
2021-06-09,142.570007,143.210007,141.639999,142.169998,138.897125,174100
2021-06-10,142.389999,145.050003,142.229996,144.990005,141.652222,216100
2021-06-11,145.259995,146.250000,144.240005,145.830002,142.472855,152900
2021-06-14,146.000000,146.000000,143.070007,143.490005,140.186722,223600
2021-06-15,143.539993,144.910004,143.369995,144.330002,141.007401,214200
2021-06-16,144.449997,145.190002,142.440002,142.619995,139.336761,168400
2021-06-17,142.759995,143.600006,139.970001,141.509995,138.252335,157900
2021-06-18,140.750000,141.899994,139.910004,140.100006,136.874771,280400
2021-06-21,140.979996,142.199997,140.169998,141.580002,138.320694,229800
2021-06-22,141.889999,142.660004,141.160004,141.630005,138.369553,207400
2021-06-23,141.389999,142.160004,140.100006,140.169998,136.943161,227600
2021-06-24,140.929993,140.929993,139.789993,140.179993,136.952911,142300
2021-06-25,140.179993,141.490005,140.110001,140.919998,137.675903,635000
2021-06-28,141.080002,141.419998,139.729996,140.710007,137.470734,218600
2021-06-29,140.809998,141.970001,140.059998,140.279999,137.050644,151900
2021-06-30,140.320007,141.919998,140.289993,140.839996,137.597748,186500
2021-07-01,141.110001,141.699997,140.899994,141.119995,137.871277,225500
2021-07-02,141.479996,141.940002,140.059998,140.410004,137.177658,121900
2021-07-06,140.399994,140.869995,138.639999,140.050003,136.825928,273400
2021-07-07,139.820007,141.460007,139.820007,141.020004,137.773621,219900
2021-07-08,139.940002,140.600006,139.009995,139.270004,136.063919,154200
2021-07-09,139.850006,141.279999,139.759995,141.179993,137.929916,229800
2021-07-12,140.820007,141.009995,140.050003,140.419998,137.187408,174300
2021-07-13,140.210007,141.210007,138.360001,138.500000,135.311630,223600
2021-07-14,138.669998,139.149994,138.009995,138.440002,135.252991,179900
2021-07-15,137.750000,139.009995,137.320007,138.559998,135.370224,155500
2021-07-16,139.009995,140.350006,138.399994,139.039993,135.839157,177700
2021-07-19,138.039993,138.929993,136.380005,137.130005,133.973145,293000
2021-07-20,137.300003,139.649994,137.000000,137.020004,133.865692,294000
2021-07-21,137.300003,138.009995,135.929993,136.059998,132.927780,158000
2021-07-22,136.330002,136.740005,134.660004,134.669998,131.569809,203600
2021-07-23,134.979996,136.279999,134.289993,136.240005,133.103653,175200
2021-07-26,136.759995,137.130005,135.899994,136.720001,133.572586,191000
2021-07-27,136.110001,138.250000,135.389999,136.759995,133.611679,150500
2021-07-28,136.520004,137.820007,136.229996,137.649994,134.481186,165100
2021-07-29,138.720001,140.009995,138.720001,139.050003,135.848953,316000
2021-07-30,136.000000,139.509995,128.179993,128.919998,125.952148,842400
2021-08-02,128.440002,130.580002,127.690002,129.910004,126.919373,453600
2021-08-03,129.550003,129.740005,127.669998,128.630005,126.037506,418300
2021-08-04,128.759995,129.399994,126.320000,126.769997,124.214996,294500
2021-08-05,127.440002,128.199997,126.639999,127.500000,124.930275,158000
2021-08-06,128.080002,129.460007,127.919998,128.429993,125.841522,184600
2021-08-09,128.699997,130.740005,128.619995,130.080002,127.458290,297200
2021-08-10,129.309998,131.210007,128.960007,129.199997,126.596008,200400
2021-08-11,130.190002,132.320007,129.169998,131.630005,128.977051,305900
2021-08-12,132.539993,133.600006,131.910004,132.679993,130.005859,247800
2021-08-13,132.889999,133.889999,132.509995,133.050003,130.368423,174300
2021-08-16,132.589996,133.169998,131.660004,132.880005,130.201843,106300
2021-08-17,132.330002,133.139999,131.600006,133.009995,130.329193,213100
2021-08-18,132.279999,133.100006,132.039993,132.050003,129.388580,110800
2021-08-19,131.440002,132.949997,131.399994,132.410004,129.741333,94000
2021-08-20,132.100006,133.910004,131.929993,133.520004,130.828949,118600
2021-08-23,134.169998,134.550003,132.490005,132.960007,130.280228,111200
2021-08-24,132.949997,133.720001,132.220001,132.960007,130.280228,85700
2021-08-25,133.080002,134.500000,132.940002,134.130005,131.426651,116000
2021-08-26,133.600006,133.779999,132.479996,132.660004,129.986282,133600
2021-08-27,133.350006,134.949997,133.300003,134.529999,131.818588,180600
2021-08-30,135.160004,136.229996,135.000000,135.229996,132.504486,122300
2021-08-31,135.559998,135.949997,134.220001,134.800003,132.083160,154100
2021-09-01,135.110001,135.500000,134.139999,135.009995,132.288910,135800
2021-09-02,135.500000,136.220001,134.229996,135.139999,132.416306,165500
2021-09-03,135.279999,136.190002,134.929993,135.149994,132.426086,112700
2021-09-07,134.720001,134.720001,130.929993,131.080002,128.438110,131600
2021-09-08,130.339996,131.350006,130.339996,130.880005,128.242157,325200
2021-09-09,130.410004,131.119995,128.369995,128.630005,126.037506,227700
2021-09-10,128.270004,129.300003,125.820000,125.839996,123.303734,341000
2021-09-13,125.459999,126.120003,123.760002,124.760002,122.245506,286000
2021-09-14,125.129997,126.419998,124.220001,124.580002,122.069130,184100
2021-09-15,123.900002,125.430000,123.300003,124.629997,122.118126,206600
2021-09-16,124.470001,125.320000,122.040001,122.300003,119.835075,176800
2021-09-17,122.199997,122.639999,120.720001,121.230003,118.786652,568400
2021-09-20,119.760002,121.879997,119.540001,121.860001,119.403946,289200
2021-09-21,121.959999,122.320000,119.830002,120.059998,117.640228,240600
2021-09-22,120.379997,121.209999,119.440002,120.279999,117.855797,235000
2021-09-23,120.839996,121.660004,120.279999,121.010002,118.571083,162100
2021-09-24,120.660004,121.410004,120.269997,120.360001,117.934181,186300
2021-09-27,120.180000,121.129997,119.790001,120.330002,117.904793,206600
2021-09-28,120.370003,120.870003,118.879997,120.029999,117.610825,230800
2021-09-29,120.000000,121.290001,120.000000,120.379997,117.953773,237600
2021-09-30,120.790001,121.430000,119.300003,119.349998,116.944542,314900
2021-10-01,119.839996,122.320000,118.610001,121.580002,119.129601,259800
2021-10-04,121.500000,122.650002,120.989998,122.290001,119.825287,241900
2021-10-05,121.879997,122.870003,120.620003,121.660004,119.207985,249200
2021-10-06,121.070000,123.239998,120.449997,123.099998,120.618965,240900
2021-10-07,123.279999,126.040001,123.230003,124.260002,121.755585,252700
2021-10-08,124.589996,125.089996,123.760002,124.510002,122.000549,217900
2021-10-11,124.470001,126.209999,124.269997,124.570000,122.059326,182800
2021-10-12,124.120003,125.209999,123.849998,124.489998,121.980934,99800
2021-10-13,125.190002,127.570000,124.760002,127.389999,124.822479,266400
2021-10-14,127.510002,128.360001,126.879997,128.009995,125.429993,215400
2021-10-15,128.610001,129.250000,127.709999,128.220001,125.635773,193200
2021-10-18,127.639999,128.690002,126.910004,127.820000,125.243828,221100
2021-10-19,128.139999,128.550003,127.169998,127.550003,124.979271,143300
2021-10-20,127.260002,128.759995,126.930000,128.160004,125.576988,180000
2021-10-21,128.039993,129.559998,127.300003,129.070007,126.468651,139700
2021-10-22,128.610001,129.789993,127.680000,127.769997,125.194832,131600
2021-10-25,127.959999,128.880005,126.709999,127.790001,125.214439,216400
2021-10-26,127.589996,128.279999,126.510002,126.889999,124.703392,188500
2021-10-27,126.500000,127.199997,125.279999,125.320000,123.160446,202200
2021-10-28,125.099998,126.339996,125.099998,125.980003,123.809082,218700
2021-10-29,123.419998,125.430000,119.900002,120.779999,118.698685,696400
2021-11-01,119.980003,125.669998,119.980003,125.180000,123.022865,581800
2021-11-02,125.860001,128.110001,124.500000,127.400002,125.204597,275500
2021-11-03,127.489998,128.500000,126.169998,128.399994,126.187355,290000
2021-11-04,128.520004,129.779999,128.360001,128.550003,126.334785,326300
2021-11-05,129.500000,131.660004,129.130005,131.500000,129.233978,335700
2021-11-08,131.949997,132.270004,129.070007,130.639999,128.388763,255000
2021-11-09,130.220001,131.470001,129.750000,130.360001,128.113602,170700
2021-11-10,130.660004,131.080002,129.169998,129.580002,127.347031,147000
2021-11-11,129.770004,130.500000,128.729996,129.830002,127.592728,131800
2021-11-12,130.429993,131.619995,129.509995,131.490005,129.224136,177500
2021-11-15,132.419998,133.000000,130.800003,132.320007,130.039825,190800
2021-11-16,132.259995,135.809998,132.000000,134.240005,131.926758,402900
2021-11-17,134.490005,135.199997,132.610001,134.449997,132.133118,267100
2021-11-18,134.139999,134.139999,129.509995,129.639999,127.406013,258800
2021-11-19,129.669998,131.520004,129.479996,130.149994,127.907211,212800
2021-11-22,130.500000,131.490005,128.789993,128.800003,126.580475,274500
2021-11-23,128.800003,130.669998,128.500000,129.699997,127.464973,155800
2021-11-24,129.339996,130.080002,127.709999,128.179993,125.971153,220400
2021-11-26,126.510002,129.089996,126.339996,126.610001,124.428215,167000
2021-11-29,128.050003,128.300003,125.500000,125.870003,123.700966,228100
2021-11-30,124.690002,125.440002,119.320000,119.589996,117.529182,593800
2021-12-01,120.669998,122.430000,116.669998,116.790001,114.777435,786000
2021-12-02,117.320000,120.699997,116.940002,119.650002,117.588158,578300
2021-12-03,119.639999,120.709999,117.629997,118.800003,116.752808,368300
2021-12-06,120.230003,121.220001,118.830002,120.220001,118.148338,615400
2021-12-07,121.199997,121.739998,119.769997,120.279999,118.207298,377900
2021-12-08,120.599998,121.269997,119.459999,120.820000,118.737991,210100
2021-12-09,120.220001,121.010002,119.230003,119.529999,117.470230,193600
2021-12-10,120.080002,120.970001,119.489998,119.739998,117.676605,168900
2021-12-13,119.470001,120.620003,118.269997,118.610001,116.566078,217900
2021-12-14,118.000000,119.300003,116.790001,116.949997,114.934669,292600
2021-12-15,117.190002,119.070000,117.190002,118.370003,116.330223,309800
2021-12-16,119.239998,120.190002,118.260002,118.690002,116.644699,242600
2021-12-17,118.690002,118.750000,115.669998,115.889999,113.892952,800100
2021-12-20,114.820000,115.970001,112.370003,113.669998,111.711197,291900
2021-12-21,114.230003,115.889999,113.709999,115.389999,113.401566,301800
2021-12-22,115.050003,116.279999,114.410004,115.389999,113.401566,379800
2021-12-23,115.669998,116.559998,115.129997,116.330002,114.325363,223800
2021-12-27,116.639999,120.029999,116.599998,119.889999,117.824013,352200
2021-12-28,120.370003,122.099998,120.059998,121.440002,119.347313,438700
2021-12-29,121.449997,123.500000,121.449997,122.099998,119.995941,953000
2021-12-30,122.500000,123.500000,121.610001,121.879997,119.779716,237200
2021-12-31,121.610001,122.879997,121.230003,122.480003,120.369400,226400
2022-01-03,122.440002,123.000000,119.290001,120.820000,118.737991,234900
2022-01-04,121.000000,122.919998,119.959999,121.379997,119.288338,337300
2022-01-05,121.239998,124.139999,121.239998,123.059998,120.939400,367600
2022-01-06,123.540001,124.000000,122.010002,122.550003,120.438179,231900
2022-01-07,122.720001,123.790001,121.970001,123.680000,121.548714,335100
2022-01-10,122.949997,123.889999,121.680000,122.050003,119.946793,398400
2022-01-11,122.279999,122.980003,120.730003,122.519997,120.408699,135500
2022-01-12,122.320000,123.000000,120.620003,121.300003,119.209724,206600
2022-01-13,121.669998,122.330002,120.370003,121.669998,119.573349,193200
2022-01-14,121.279999,121.489998,119.870003,121.180000,119.091789,179000
2022-01-18,120.610001,121.400002,118.830002,120.370003,118.295753,232500
2022-01-19,120.760002,121.900002,120.500000,121.419998,119.327644,252600
2022-01-20,120.820000,122.309998,118.809998,118.830002,116.782288,297700
2022-01-21,119.220001,120.070000,115.830002,116.379997,114.374504,351800
2022-01-24,115.589996,117.250000,114.029999,117.029999,115.013298,329300
2022-01-25,114.720001,116.940002,113.099998,116.029999,114.030533,470000
2022-01-26,115.779999,117.550003,114.410004,115.190002,113.205017,1542500
2022-01-27,115.779999,118.300003,112.669998,113.650002,111.691551,263900
2022-01-28,113.830002,115.099998,112.449997,115.050003,113.067436,323100
2022-01-31,115.010002,117.339996,114.230003,117.300003,115.278648,486300
2022-02-01,117.089996,118.930000,116.449997,117.480003,115.455551,214000
2022-02-02,116.699997,117.019997,116.010002,116.620003,114.982285,363600
2022-02-03,116.440002,117.379997,114.910004,115.190002,113.572372,167700
2022-02-04,114.680000,116.029999,113.660004,115.260002,113.641388,242700
2022-02-07,115.620003,116.029999,114.330002,114.739998,113.128685,263300
2022-02-08,115.000000,116.440002,114.739998,116.050003,114.420288,204200
2022-02-09,117.080002,117.660004,116.199997,116.550003,114.913269,295900
2022-02-10,115.519997,117.250000,113.660004,114.610001,113.000519,267100
2022-02-11,115.040001,116.440002,112.870003,113.709999,112.113152,230600
2022-02-14,113.709999,114.510002,112.440002,114.099998,112.497673,266600
2022-02-15,114.660004,116.129997,113.400002,114.099998,112.497673,263000
2022-02-16,114.250000,115.080002,113.099998,114.699997,113.089241,271400
2022-02-17,113.959999,116.260002,113.320000,115.610001,113.986465,362400
2022-02-18,116.279999,121.519997,114.419998,118.440002,116.776726,462300
2022-02-22,118.500000,120.180000,117.320000,119.099998,117.427452,437200
2022-02-23,119.739998,120.309998,117.599998,117.690002,116.037262,321100
2022-02-24,116.269997,117.339996,114.720001,116.870003,115.228783,349300
2022-02-25,117.160004,121.599998,116.820000,120.970001,119.271194,260100
2022-02-28,119.470001,122.029999,119.279999,121.879997,120.168419,316300
2022-03-01,121.959999,122.940002,118.529999,119.099998,117.427452,325700
2022-03-02,119.089996,120.059998,118.000000,118.379997,116.717567,435100
2022-03-03,118.879997,119.750000,117.410004,119.330002,117.654228,196100
2022-03-04,118.050003,120.389999,117.690002,120.190002,118.502151,206700
2022-03-07,119.309998,120.349998,116.449997,116.519997,114.883682,337300
2022-03-08,116.959999,118.290001,110.040001,110.190002,108.642586,382800
2022-03-09,111.180000,114.379997,111.180000,113.269997,111.679329,224800
2022-03-10,111.830002,113.660004,111.440002,112.260002,110.683517,223200
2022-03-11,113.300003,113.720001,112.239998,112.300003,110.722954,237100
2022-03-14,112.820000,115.910004,112.769997,114.519997,112.911774,173800
2022-03-15,115.089996,116.930000,114.089996,116.809998,115.169617,199500
2022-03-16,117.720001,119.110001,114.360001,116.989998,115.347092,266800
2022-03-17,117.239998,118.510002,115.269997,118.410004,116.747154,163300
2022-03-18,118.099998,118.830002,116.269997,117.739998,116.086555,286800
2022-03-21,117.730003,118.669998,116.669998,118.660004,116.993637,309100
2022-03-22,119.779999,120.459999,117.360001,117.669998,116.017540,294100
2022-03-23,117.800003,118.099998,114.040001,114.669998,113.059662,256800
2022-03-24,115.000000,116.220001,114.000000,115.849998,114.223099,210100
2022-03-25,116.849998,117.260002,116.000000,117.239998,115.593575,148000
2022-03-28,117.430000,117.570000,115.010002,116.489998,114.854103,167300
2022-03-29,117.510002,119.589996,117.510002,119.320000,117.644363,184700
2022-03-30,119.570000,119.570000,118.239998,118.820000,117.151390,156600
2022-03-31,118.400002,119.830002,117.470001,117.500000,115.849930,211200
2022-04-01,118.150002,119.639999,117.290001,119.019997,117.348579,400800
2022-04-04,118.720001,118.720001,115.199997,118.410004,116.747154,286300
2022-04-05,117.650002,119.209999,117.589996,117.730003,116.076706,225300
2022-04-06,117.260002,118.919998,116.349998,118.339996,116.678123,194300
2022-04-07,117.910004,120.599998,116.629997,120.000000,118.314827,331900
2022-04-08,119.809998,122.230003,119.809998,121.410004,119.705017,305300
2022-04-11,121.129997,122.300003,118.959999,118.959999,117.289429,208000
2022-04-12,119.230003,120.190002,116.400002,117.010002,115.366814,187400
2022-04-13,116.889999,118.000000,116.889999,117.879997,116.224594,120200
2022-04-14,117.419998,118.699997,116.959999,117.400002,115.751335,163300
2022-04-18,116.779999,117.540001,113.580002,114.010002,112.408936,137100
2022-04-19,114.570000,117.639999,113.510002,117.230003,115.583725,221600
2022-04-20,117.980003,119.750000,117.330002,119.500000,117.821838,141200
2022-04-21,120.250000,120.349998,118.339996,118.940002,117.269714,178200
2022-04-22,118.599998,118.599998,116.430000,116.620003,114.982285,179900
2022-04-25,116.500000,116.500000,112.180000,115.400002,113.779419,379600
2022-04-26,114.370003,115.349998,110.440002,110.580002,109.387314,295300
2022-04-27,110.940002,112.989998,110.570000,111.099998,109.901703,231500
2022-04-28,111.180000,112.239998,109.550003,112.099998,110.890915,289200
2022-04-29,112.519997,116.449997,112.519997,114.830002,113.591476,640200
2022-05-02,115.419998,116.970001,112.070000,113.389999,112.167000,457000
2022-05-03,112.989998,115.370003,112.639999,113.830002,112.602257,225400
2022-05-04,113.360001,116.779999,112.720001,116.750000,115.490761,346900
2022-05-05,115.489998,116.180000,111.870003,112.800003,111.583366,179000
2022-05-06,111.690002,111.720001,109.760002,111.230003,110.030304,331800
2022-05-09,110.000000,111.099998,106.660004,107.010002,105.855812,276700
2022-05-10,107.559998,108.629997,103.940002,104.540001,103.412460,411800
2022-05-11,104.389999,107.419998,103.510002,104.059998,102.937630,297800
2022-05-12,103.720001,106.660004,103.250000,106.449997,105.301857,389300
2022-05-13,107.000000,108.290001,106.760002,107.510002,106.350433,226900
2022-05-16,107.290001,108.419998,106.349998,108.330002,107.161575,202500
2022-05-17,110.129997,110.389999,108.220001,108.959999,107.784782,311200
2022-05-18,107.989998,108.900002,103.570000,104.070000,102.947525,325900
2022-05-19,103.389999,104.599998,102.260002,103.489998,102.373779,357000
2022-05-20,104.980003,105.300003,97.190002,99.720001,98.644447,796300
2022-05-23,100.949997,104.589996,99.669998,104.220001,103.095909,545200
2022-05-24,104.500000,105.620003,102.820000,104.949997,103.818031,567400
2022-05-25,103.480003,105.269997,102.480003,104.449997,103.323433,493400
2022-05-26,105.699997,106.949997,105.279999,106.529999,105.380997,188200
2022-05-27,106.959999,108.930000,106.959999,108.889999,107.715538,178000
2022-05-31,108.080002,109.430000,106.349998,107.089996,105.934944,306100
2022-06-01,107.489998,107.919998,105.629997,107.250000,106.093231,313900
2022-06-02,107.599998,110.029999,106.830002,109.830002,108.645401,145400
2022-06-03,108.720001,109.760002,108.239998,108.800003,107.626511,139800
2022-06-06,109.589996,110.809998,108.330002,109.250000,108.071655,207400
2022-06-07,108.639999,110.339996,108.400002,110.180000,108.991623,132900
2022-06-08,108.959999,109.389999,107.260002,107.709999,106.548264,157700
2022-06-09,106.769997,107.699997,105.800003,105.830002,104.688545,193800
2022-06-10,103.580002,105.889999,103.129997,105.199997,104.065338,266800
2022-06-13,102.870003,103.230003,101.050003,102.010002,100.909752,252100
2022-06-14,101.610001,102.279999,98.389999,99.519997,98.446594,227900
2022-06-15,100.300003,101.239998,98.540001,100.370003,99.287437,283300
2022-06-16,98.889999,98.889999,94.029999,94.769997,93.747833,620400
2022-06-17,94.489998,98.459999,94.480003,97.500000,96.448395,458500
2022-06-21,97.980003,98.699997,97.089996,97.190002,96.141739,236100
2022-06-22,96.370003,98.839996,96.239998,98.459999,97.398026,228200
2022-06-23,98.620003,99.320000,97.169998,98.930000,97.862961,152100
2022-06-24,100.050003,102.650002,99.669998,102.620003,101.513168,327300
2022-06-27,102.620003,104.150002,101.989998,103.570000,102.452919,185200
2022-06-28,104.220001,104.370003,101.980003,102.699997,101.592300,280200
2022-06-29,102.480003,103.889999,101.339996,103.389999,102.274864,220900
2022-06-30,102.330002,103.500000,101.370003,103.209999,102.096802,205900
2022-07-01,103.339996,104.669998,102.160004,104.489998,103.362991,262300
2022-07-05,103.339996,103.339996,100.970001,102.919998,101.809929,230200
2022-07-06,103.529999,103.550003,101.510002,102.639999,101.532944,286400
2022-07-07,102.449997,103.300003,101.849998,103.110001,101.997879,221200
2022-07-08,102.730003,103.029999,100.000000,100.010002,98.931320,208100
2022-07-11,99.809998,100.120003,98.470001,99.550003,98.476280,186900
2022-07-12,99.470001,101.849998,99.220001,100.510002,99.425926,284300
2022-07-13,99.730003,101.309998,99.510002,100.669998,99.584198,202500
2022-07-14,99.580002,99.910004,98.339996,99.300003,98.228973,199800
2022-07-15,100.809998,100.809998,99.209999,100.010002,98.931320,195300
2022-07-18,100.570000,100.949997,97.699997,98.099998,97.041908,179900
2022-07-19,98.550003,101.089996,98.550003,101.029999,99.940315,635400
2022-07-20,100.669998,102.480003,100.660004,101.820000,100.721794,458900
2022-07-21,101.910004,103.599998,101.580002,103.480003,102.363892,138900
2022-07-22,103.610001,103.980003,102.330002,103.599998,102.482590,214600
2022-07-25,103.720001,104.510002,102.910004,103.919998,102.799141,267400
2022-07-26,103.110001,103.879997,101.879997,103.830002,103.087074,262200
2022-07-27,104.239998,106.540001,103.639999,106.029999,105.271332,229200
2022-07-28,106.080002,107.820000,105.150002,107.820000,107.048523,249800
2022-07-29,107.169998,109.489998,106.389999,107.760002,106.988953,424400
2022-08-01,106.300003,108.650002,105.610001,108.199997,107.425797,277000
2022-08-02,107.860001,108.040001,105.830002,106.589996,105.827324,209700
2022-08-03,107.330002,108.820000,106.440002,107.639999,106.869804,260700
2022-08-04,107.199997,107.220001,105.860001,106.440002,105.678398,292600
2022-08-05,105.669998,106.669998,105.089996,105.650002,104.894051,174600
2022-08-08,106.129997,108.000000,106.010002,107.269997,106.502457,219300
2022-08-09,107.760002,108.000000,106.489998,107.269997,106.502457,249200
2022-08-10,109.230003,110.739998,108.050003,109.769997,108.984566,152900
2022-08-11,110.639999,111.290001,109.550003,109.629997,108.845566,171100
2022-08-12,110.519997,111.150002,110.139999,111.080002,110.285194,201300
2022-08-15,110.680000,112.430000,110.680000,111.910004,111.109261,146500
2022-08-16,111.160004,112.260002,110.709999,112.070000,111.268112,187700
2022-08-17,111.000000,111.470001,110.050003,111.029999,110.235558,173100
2022-08-18,110.940002,111.139999,109.970001,111.029999,110.235558,197300
2022-08-19,111.169998,111.260002,109.550003,110.160004,109.371780,253400
2022-08-22,109.169998,109.309998,107.750000,107.919998,107.147804,178300
2022-08-23,107.879997,108.440002,106.010002,106.889999,106.125175,178000
2022-08-24,107.370003,108.070000,106.720001,107.449997,106.681168,183000
2022-08-25,107.540001,108.970001,107.540001,108.970001,108.190300,132900
2022-08-26,109.550003,109.550003,104.169998,104.410004,103.662926,152000
2022-08-29,103.970001,104.470001,102.790001,104.000000,103.255859,146800
2022-08-30,104.440002,104.669998,102.720001,104.050003,103.305496,148900
2022-08-31,104.379997,104.760002,102.750000,102.809998,102.074371,180300
2022-09-01,102.360001,102.870003,101.330002,102.620003,101.885735,212200
2022-09-02,103.339996,104.180000,100.720001,101.430000,100.704247,206000
2022-09-06,101.260002,101.879997,99.809998,100.330002,99.612122,159300
2022-09-07,100.639999,103.629997,100.620003,103.239998,102.501289,164200
2022-09-08,102.260002,105.019997,102.129997,104.889999,104.139488,137900
2022-09-09,105.680000,106.820000,104.680000,106.410004,105.648613,197100
2022-09-12,107.180000,108.269997,106.739998,107.110001,106.343605,154500
2022-09-13,105.160004,105.750000,103.980003,104.019997,103.275703,271700
2022-09-14,103.809998,104.309998,102.449997,103.580002,102.838860,250700
2022-09-15,103.250000,105.400002,103.220001,105.199997,104.447266,423000
2022-09-16,104.330002,104.330002,101.400002,102.639999,101.905579,579400
2022-09-19,101.849998,104.550003,101.839996,104.529999,103.782066,194400
2022-09-20,103.449997,103.449997,100.690002,101.180000,100.456032,157500
2022-09-21,101.790001,102.279999,99.629997,99.669998,98.956841,173500
2022-09-22,99.139999,99.139999,97.269997,98.120003,97.417931,199200
2022-09-23,96.930000,98.309998,96.930000,98.080002,97.378220,274900
2022-09-26,97.500000,98.449997,96.430000,97.410004,96.713013,364000
2022-09-27,97.989998,98.800003,95.230003,96.059998,95.372665,238600
2022-09-28,96.750000,98.500000,96.050003,98.239998,97.537064,237000
2022-09-29,97.220001,97.260002,96.269997,96.769997,96.077583,206400
2022-09-30,96.120003,97.760002,94.870003,95.029999,94.350037,471500
2022-10-03,96.459999,98.019997,95.660004,97.440002,96.742790,274200
2022-10-04,99.089996,99.830002,98.510002,99.230003,98.519989,262900
2022-10-05,98.089996,99.480003,97.029999,98.180000,97.477501,201300
2022-10-06,97.660004,98.199997,96.320000,97.739998,97.040649,202100
2022-10-07,96.930000,96.930000,93.599998,93.980003,93.307556,119000
2022-10-10,94.389999,95.470001,93.910004,94.370003,93.694763,177300
2022-10-11,93.800003,95.650002,93.300003,94.739998,94.062111,369800
2022-10-12,94.760002,94.760002,93.269997,93.370003,92.701920,147400
2022-10-13,91.070000,95.029999,90.230003,94.559998,93.883400,237000
2022-10-14,95.400002,95.919998,94.110001,95.080002,94.399681,319300
2022-10-17,96.019997,97.370003,96.019997,97.320000,96.623650,344900
2022-10-18,99.250000,99.980003,98.099998,99.279999,98.569626,281300
2022-10-19,98.709999,99.209999,97.589996,98.209999,97.507286,359500
2022-10-20,98.080002,98.699997,95.430000,96.070000,95.382591,185600
2022-10-21,95.559998,97.919998,94.529999,97.519997,96.822220,176400
2022-10-24,97.900002,98.800003,97.269997,97.889999,97.189568,158500
2022-10-25,96.470001,99.430000,95.970001,99.209999,98.883987,292500
2022-10-26,99.849998,101.050003,98.959999,99.089996,98.764381,271900
2022-10-27,99.110001,100.639999,98.870003,99.089996,98.764381,216700
2022-10-28,101.949997,104.120003,99.220001,101.129997,100.797676,445300
2022-10-31,99.959999,100.599998,99.099998,99.150002,98.824188,372900
2022-11-01,99.599998,99.599998,96.879997,97.220001,96.900528,301300
2022-11-02,97.190002,97.750000,94.570000,94.760002,94.448616,268400
2022-11-03,94.279999,95.019997,92.550003,94.709999,94.398773,278300
2022-11-04,96.440002,98.779999,96.230003,98.769997,98.445435,209100
2022-11-07,99.190002,100.519997,97.980003,100.489998,100.159782,180700
2022-11-08,101.000000,101.760002,100.129997,100.349998,100.020241,153100
2022-11-09,100.230003,100.879997,98.550003,99.120003,98.794289,165300
2022-11-10,102.830002,103.250000,101.040001,102.330002,101.993736,266000
2022-11-11,102.839996,105.080002,101.459999,104.250000,103.907425,292600
2022-11-14,103.610001,105.269997,103.610001,104.400002,104.056938,238400
2022-11-15,105.830002,107.010002,104.279999,104.690002,104.345985,272500
2022-11-16,104.860001,105.889999,104.699997,104.919998,104.575226,139300
2022-11-17,103.709999,105.070000,103.709999,104.610001,104.266243,162700
2022-11-18,106.110001,106.930000,104.610001,106.040001,105.691544,213200
2022-11-21,106.099998,106.699997,104.930000,105.139999,104.794502,193300
2022-11-22,105.239998,106.660004,105.239998,106.000000,105.651680,284000
2022-11-23,105.989998,106.779999,105.580002,106.190002,105.841057,202100
2022-11-25,106.550003,106.550003,105.559998,105.910004,105.561974,114700
2022-11-28,105.040001,105.489998,103.239998,103.500000,103.159889,208500
2022-11-29,103.000000,104.099998,102.930000,103.309998,102.970512,181400
2022-11-30,102.889999,106.180000,101.500000,106.139999,105.791214,297900
2022-12-01,106.779999,107.779999,106.510002,107.089996,106.738091,156600
2022-12-02,106.260002,108.550003,106.099998,108.050003,107.694946,167400
2022-12-05,106.860001,106.930000,105.680000,106.699997,106.349373,153800
2022-12-06,106.550003,107.080002,105.370003,107.000000,106.648392,247800
2022-12-07,106.730003,108.160004,106.199997,106.300003,105.950691,152800
2022-12-08,106.449997,107.940002,106.449997,107.930000,107.575333,190800
2022-12-09,107.830002,108.980003,107.650002,108.059998,107.704903,316700
2022-12-12,108.459999,108.779999,107.489998,108.080002,107.724846,209100
2022-12-13,110.379997,111.110001,107.580002,108.209999,107.854416,328400
2022-12-14,108.440002,110.279999,107.230003,108.239998,107.884315,302500
2022-12-15,107.699997,108.550003,107.239998,107.650002,107.296257,230000
2022-12-16,107.110001,108.260002,106.389999,107.440002,107.086945,540600
2022-12-19,107.320000,108.360001,105.779999,106.260002,105.910828,269800
2022-12-20,106.430000,108.129997,106.269997,107.120003,106.767998,193300
2022-12-21,107.980003,110.639999,107.570000,110.639999,110.276428,388500
2022-12-22,109.500000,110.800003,107.459999,108.559998,108.203262,213800
2022-12-23,109.139999,110.199997,108.349998,110.010002,109.648499,161500
2022-12-27,109.900002,111.019997,109.629997,110.870003,110.505676,101700
2022-12-28,111.059998,111.910004,109.010002,109.169998,108.811256,162700
2022-12-29,109.919998,111.169998,109.379997,110.790001,110.425941,128700
2022-12-30,110.500000,110.739998,109.019997,109.980003,109.618599,172300
2023-01-03,110.580002,111.070000,109.449997,110.260002,109.897682,239200
2023-01-04,111.260002,112.209999,110.309998,111.230003,110.864494,217200
2023-01-05,110.639999,113.029999,109.120003,112.120003,111.751572,310000
2023-01-06,113.379997,114.400002,112.739998,114.059998,113.685188,181500
2023-01-09,114.629997,115.680000,113.279999,113.330002,112.957596,161800
2023-01-10,113.190002,114.339996,112.959999,113.430000,113.057259,163000
2023-01-11,113.580002,114.430000,113.449997,113.459999,113.087166,141300
2023-01-12,113.690002,113.790001,112.400002,113.500000,113.127029,179100
2023-01-13,113.209999,114.309998,113.209999,113.970001,113.595490,177700
2023-01-17,114.180000,114.529999,112.830002,114.059998,113.685188,204500
2023-01-18,114.489998,114.599998,111.919998,111.970001,111.602058,118900
2023-01-19,111.589996,112.410004,110.330002,111.989998,111.621994,177400
2023-01-20,112.459999,113.290001,111.690002,113.290001,112.917725,180800
2023-01-23,113.199997,113.730003,112.459999,113.360001,112.987495,165500
2023-01-24,113.029999,113.150002,111.760002,112.839996,112.469200,172600
2023-01-25,111.839996,112.510002,110.489998,112.070000,111.701729,181200
2023-01-26,112.510002,112.889999,111.820000,112.790001,112.419365,139000
2023-01-27,112.510002,112.940002,111.860001,112.730003,112.359566,204300
2023-01-30,111.709999,113.330002,111.459999,113.250000,112.877853,200200
2023-01-31,113.830002,116.320000,113.320000,115.639999,115.260002,630900
2023-02-01,114.449997,118.059998,114.389999,117.089996,117.089996,190900
2023-02-02,117.089996,118.339996,116.580002,117.300003,117.300003,271600
2023-02-03,116.589996,116.589996,115.209999,115.419998,115.419998,284100
2023-02-06,114.559998,115.500000,113.440002,113.440002,113.440002,180400
2023-02-07,112.669998,112.830002,110.709999,112.190002,112.190002,189100
2023-02-08,111.720001,112.160004,110.550003,110.559998,110.559998,138800
2023-02-09,111.480003,111.809998,109.239998,109.250000,109.250000,180200
2023-02-10,109.000000,109.220001,107.889999,109.209999,109.209999,217900
2023-02-13,109.400002,110.540001,109.250000,109.800003,109.800003,184900
2023-02-14,109.800003,111.199997,109.660004,109.760002,109.760002,122500
2023-02-15,108.820000,110.400002,108.570000,110.389999,110.389999,155200
2023-02-16,108.720001,111.529999,108.180000,110.690002,110.690002,372200
2023-02-17,115.000000,121.279999,114.019997,116.690002,116.690002,590700
2023-02-21,116.500000,116.500000,113.110001,115.080002,115.080002,463900
2023-02-22,114.610001,116.000000,114.430000,114.720001,114.720001,257700
2023-02-23,114.809998,115.559998,113.080002,114.559998,114.559998,196400
2023-02-24,113.800003,115.040001,112.989998,114.769997,114.769997,215100
2023-02-27,115.839996,117.250000,115.510002,116.690002,116.690002,215300
2023-02-28,116.650002,118.110001,116.589996,116.720001,116.720001,261500
2023-03-01,116.180000,117.610001,116.180000,117.459999,117.459999,194700
2023-03-02,117.419998,119.000000,117.230003,118.580002,118.580002,205000
2023-03-03,118.970001,120.250000,117.849998,120.250000,120.250000,225400
2023-03-06,120.129997,120.190002,116.580002,116.830002,116.830002,265900
2023-03-07,116.709999,117.339996,116.220001,116.669998,116.669998,247100
2023-03-08,116.410004,116.699997,115.169998,115.330002,115.330002,281700
2023-03-09,115.959999,116.410004,114.529999,114.570000,114.570000,189700
2023-03-10,114.639999,114.639999,112.279999,112.559998,112.559998,201400
2023-03-13,111.449997,113.110001,111.449997,111.970001,111.970001,245400
2023-03-14,113.870003,115.260002,113.489998,115.080002,115.080002,261500
2023-03-15,113.459999,113.750000,110.169998,111.379997,111.379997,256200
2023-03-16,110.220001,113.279999,109.949997,112.680000,112.680000,209200
2023-03-17,112.919998,112.919998,109.949997,110.760002,110.760002,393800
2023-03-20,111.800003,113.470001,111.800003,112.779999,112.779999,146400
2023-03-21,114.129997,114.220001,112.470001,113.019997,113.019997,141200
2023-03-22,112.800003,114.220001,112.139999,112.250000,112.250000,176700
2023-03-23,112.150002,113.449997,110.809998,111.720001,111.720001,156900
2023-03-24,111.019997,112.989998,110.019997,112.970001,112.970001,148800